,timestamp,seq_num,digital_0,digital_1,digital_2,digital_3,ecg,eda,acc
0,0.18719267845153809,0.0,1.0,1.0,0.0,0.0,506.0,0.0,620.0
1,0.18719267845153809,1.0,1.0,1.0,0.0,0.0,505.0,0.0,616.0
2,0.18719267845153809,2.0,1.0,1.0,0.0,0.0,503.0,0.0,615.0
3,0.18719267845153809,3.0,1.0,1.0,0.0,0.0,504.0,0.0,616.0
4,0.18719267845153809,4.0,1.0,1.0,0.0,0.0,505.0,0.0,615.0
5,0.18719267845153809,5.0,1.0,1.0,0.0,0.0,505.0,0.0,616.0
6,0.18719267845153809,6.0,1.0,1.0,0.0,0.0,505.0,0.0,616.0
7,0.18719267845153809,7.0,1.0,1.0,0.0,0.0,506.0,0.0,615.0
8,0.18719267845153809,8.0,1.0,1.0,0.0,0.0,506.0,0.0,621.0
9,0.18719267845153809,9.0,1.0,1.0,0.0,0.0,506.0,0.0,616.0
10,0.18719267845153809,10.0,1.0,1.0,0.0,0.0,504.0,0.0,615.0
11,0.18719267845153809,11.0,1.0,1.0,0.0,0.0,504.0,0.0,616.0
12,0.18719267845153809,12.0,1.0,1.0,0.0,0.0,502.0,0.0,617.0
13,0.18719267845153809,13.0,1.0,1.0,0.0,0.0,504.0,0.0,616.0
14,0.18719267845153809,14.0,1.0,1.0,0.0,0.0,504.0,0.0,616.0
15,0.18719267845153809,15.0,1.0,1.0,0.0,0.0,505.0,0.0,615.0
16,0.18719267845153809,0.0,1.0,1.0,0.0,0.0,505.0,0.0,620.0
17,0.18719267845153809,1.0,1.0,1.0,0.0,0.0,504.0,0.0,615.0
18,0.18719267845153809,2.0,1.0,1.0,0.0,0.0,505.0,0.0,616.0
19,0.18719267845153809,3.0,1.0,1.0,0.0,0.0,504.0,0.0,615.0
20,0.18719267845153809,4.0,1.0,1.0,0.0,0.0,504.0,0.0,615.0
21,0.18719267845153809,5.0,1.0,1.0,0.0,0.0,505.0,0.0,616.0
22,0.18719267845153809,6.0,1.0,1.0,0.0,0.0,505.0,0.0,615.0
23,0.18719267845153809,7.0,1.0,1.0,0.0,0.0,506.0,0.0,615.0
24,0.18719267845153809,8.0,1.0,1.0,0.0,0.0,507.0,0.0,620.0
25,0.18719267845153809,9.0,1.0,1.0,0.0,0.0,508.0,0.0,615.0
26,0.18719267845153809,10.0,1.0,1.0,0.0,0.0,505.0,0.0,616.0
27,0.18719267845153809,11.0,1.0,1.0,0.0,0.0,507.0,0.0,614.0
28,0.18719267845153809,12.0,1.0,1.0,0.0,0.0,505.0,0.0,615.0
29,0.18719267845153809,13.0,1.0,1.0,0.0,0.0,504.0,0.0,615.0
30,0.18719267845153809,14.0,1.0,1.0,0.0,0.0,506.0,0.0,615.0
31,0.18719267845153809,15.0,1.0,1.0,0.0,0.0,507.0,0.0,616.0
32,0.18719267845153809,0.0,1.0,1.0,0.0,0.0,506.0,0.0,620.0
33,0.18719267845153809,1.0,1.0,1.0,0.0,0.0,508.0,0.0,617.0
34,0.18719267845153809,2.0,1.0,1.0,0.0,0.0,506.0,0.0,615.0
35,0.18719267845153809,3.0,1.0,1.0,0.0,0.0,508.0,0.0,615.0
36,0.18719267845153809,4.0,1.0,1.0,0.0,0.0,508.0,0.0,616.0
37,0.18719267845153809,5.0,1.0,1.0,0.0,0.0,506.0,0.0,615.0
38,0.18719267845153809,6.0,1.0,1.0,0.0,0.0,508.0,0.0,616.0
39,0.18719267845153809,7.0,1.0,1.0,0.0,0.0,506.0,0.0,615.0
40,0.18719267845153809,8.0,1.0,1.0,0.0,0.0,507.0,0.0,620.0
41,0.18719267845153809,9.0,1.0,1.0,0.0,0.0,508.0,0.0,617.0
42,0.18719267845153809,10.0,1.0,1.0,0.0,0.0,508.0,0.0,615.0
43,0.18719267845153809,11.0,1.0,1.0,0.0,0.0,511.0,0.0,616.0
44,0.18719267845153809,12.0,1.0,1.0,0.0,0.0,510.0,0.0,616.0
45,0.18719267845153809,13.0,1.0,1.0,0.0,0.0,509.0,0.0,615.0
46,0.18719267845153809,14.0,1.0,1.0,0.0,0.0,510.0,0.0,616.0
47,0.18719267845153809,15.0,1.0,1.0,0.0,0.0,509.0,0.0,614.0
48,0.18719267845153809,0.0,1.0,1.0,0.0,0.0,509.0,0.0,620.0
49,0.18719267845153809,1.0,1.0,1.0,0.0,0.0,508.0,0.0,616.0
50,0.18719267845153809,2.0,1.0,1.0,0.0,0.0,507.0,0.0,616.0
51,0.18719267845153809,3.0,1.0,1.0,0.0,0.0,505.0,0.0,616.0
52,0.18719267845153809,4.0,1.0,1.0,0.0,0.0,503.0,0.0,616.0
53,0.18719267845153809,5.0,1.0,1.0,0.0,0.0,504.0,0.0,616.0
54,0.18719267845153809,6.0,1.0,1.0,0.0,0.0,504.0,0.0,616.0
55,0.18719267845153809,7.0,1.0,1.0,0.0,0.0,505.0,0.0,615.0
56,0.18719267845153809,8.0,1.0,1.0,0.0,0.0,505.0,0.0,620.0
57,0.18719267845153809,9.0,1.0,1.0,0.0,0.0,507.0,0.0,616.0
58,0.18719267845153809,10.0,1.0,1.0,0.0,0.0,508.0,0.0,616.0
59,0.18719267845153809,11.0,1.0,1.0,0.0,0.0,505.0,0.0,615.0
60,0.18719267845153809,12.0,1.0,1.0,0.0,0.0,505.0,0.0,615.0
61,0.18719267845153809,13.0,1.0,1.0,0.0,0.0,506.0,0.0,616.0
62,0.18719267845153809,14.0,1.0,1.0,0.0,0.0,507.0,0.0,615.0
63,0.18719267845153809,15.0,1.0,1.0,0.0,0.0,509.0,0.0,616.0
64,0.18719267845153809,0.0,1.0,1.0,0.0,0.0,509.0,0.0,620.0
65,0.18719267845153809,1.0,1.0,1.0,0.0,0.0,509.0,0.0,615.0
66,0.18719267845153809,2.0,1.0,1.0,0.0,0.0,508.0,0.0,616.0
67,0.18719267845153809,3.0,1.0,1.0,0.0,0.0,508.0,0.0,612.0
68,0.18719267845153809,4.0,1.0,1.0,0.0,0.0,508.0,0.0,616.0
69,0.18719267845153809,5.0,1.0,1.0,0.0,0.0,508.0,0.0,616.0
70,0.18719267845153809,6.0,1.0,1.0,0.0,0.0,508.0,0.0,615.0
71,0.18719267845153809,7.0,1.0,1.0,0.0,0.0,509.0,0.0,616.0
72,0.18719267845153809,8.0,1.0,1.0,0.0,0.0,508.0,0.0,619.0
73,0.18719267845153809,9.0,1.0,1.0,0.0,0.0,509.0,0.0,615.0
74,0.18719267845153809,10.0,1.0,1.0,0.0,0.0,510.0,0.0,616.0
75,0.18719267845153809,11.0,1.0,1.0,0.0,0.0,511.0,0.0,615.0
76,0.18719267845153809,12.0,1.0,1.0,0.0,0.0,510.0,0.0,616.0
77,0.18719267845153809,13.0,1.0,1.0,0.0,0.0,507.0,0.0,616.0
78,0.18719267845153809,14.0,1.0,1.0,0.0,0.0,506.0,0.0,616.0
79,0.18719267845153809,15.0,1.0,1.0,0.0,0.0,505.0,0.0,616.0
80,0.18719267845153809,0.0,1.0,1.0,0.0,0.0,505.0,0.0,620.0
81,0.18719267845153809,1.0,1.0,1.0,0.0,0.0,508.0,0.0,616.0
82,0.18719267845153809,2.0,1.0,1.0,0.0,0.0,509.0,0.0,615.0
83,0.18719267845153809,3.0,1.0,1.0,0.0,0.0,511.0,0.0,615.0
84,0.18719267845153809,4.0,1.0,1.0,0.0,0.0,509.0,0.0,615.0
85,0.18719267845153809,5.0,1.0,1.0,0.0,0.0,509.0,0.0,616.0
86,0.18719267845153809,6.0,1.0,1.0,0.0,0.0,508.0,0.0,616.0
87,0.18719267845153809,7.0,1.0,1.0,0.0,0.0,508.0,0.0,614.0
88,0.18719267845153809,8.0,1.0,1.0,0.0,0.0,507.0,0.0,620.0
89,0.18719267845153809,9.0,1.0,1.0,0.0,0.0,506.0,0.0,616.0
90,0.18719267845153809,10.0,1.0,1.0,0.0,0.0,503.0,0.0,616.0
91,0.18719267845153809,11.0,1.0,1.0,0.0,0.0,502.0,0.0,616.0
92,0.18719267845153809,12.0,1.0,1.0,0.0,0.0,500.0,0.0,615.0
93,0.18719267845153809,13.0,1.0,1.0,0.0,0.0,504.0,0.0,616.0
94,0.18719267845153809,14.0,1.0,1.0,0.0,0.0,507.0,0.0,615.0
95,0.18719267845153809,15.0,1.0,1.0,0.0,0.0,509.0,0.0,615.0
96,0.18719267845153809,0.0,1.0,1.0,0.0,0.0,504.0,0.0,621.0
97,0.18719267845153809,1.0,1.0,1.0,0.0,0.0,503.0,0.0,616.0
98,0.18719267845153809,2.0,1.0,1.0,0.0,0.0,505.0,0.0,616.0
99,0.18719267845153809,3.0,1.0,1.0,0.0,0.0,506.0,0.0,616.0
100,0.41844892501831055,4.0,1.0,1.0,0.0,0.0,507.0,0.0,615.0
101,0.41844892501831055,5.0,1.0,1.0,0.0,0.0,506.0,0.0,617.0
102,0.41844892501831055,6.0,1.0,1.0,0.0,0.0,507.0,0.0,616.0
103,0.41844892501831055,7.0,1.0,1.0,0.0,0.0,508.0,0.0,617.0
104,0.41844892501831055,8.0,1.0,1.0,0.0,0.0,508.0,0.0,620.0
105,0.41844892501831055,9.0,1.0,1.0,0.0,0.0,508.0,0.0,615.0
106,0.41844892501831055,10.0,1.0,1.0,0.0,0.0,508.0,0.0,617.0
107,0.41844892501831055,11.0,1.0,1.0,0.0,0.0,508.0,0.0,615.0
108,0.41844892501831055,12.0,1.0,1.0,0.0,0.0,508.0,0.0,617.0
109,0.41844892501831055,13.0,1.0,1.0,0.0,0.0,507.0,0.0,616.0
110,0.41844892501831055,14.0,1.0,1.0,0.0,0.0,507.0,0.0,615.0
111,0.41844892501831055,15.0,1.0,1.0,0.0,0.0,505.0,0.0,615.0
112,0.41844892501831055,0.0,1.0,1.0,0.0,0.0,507.0,0.0,620.0
113,0.41844892501831055,1.0,1.0,1.0,0.0,0.0,508.0,0.0,616.0
114,0.41844892501831055,2.0,1.0,1.0,0.0,0.0,507.0,0.0,616.0
115,0.41844892501831055,3.0,1.0,1.0,0.0,0.0,509.0,0.0,615.0
116,0.41844892501831055,4.0,1.0,1.0,0.0,0.0,507.0,0.0,616.0
117,0.41844892501831055,5.0,1.0,1.0,0.0,0.0,504.0,0.0,616.0
118,0.41844892501831055,6.0,1.0,1.0,0.0,0.0,505.0,0.0,616.0
119,0.41844892501831055,7.0,1.0,1.0,0.0,0.0,505.0,0.0,615.0
120,0.41844892501831055,8.0,1.0,1.0,0.0,0.0,505.0,0.0,619.0
121,0.41844892501831055,9.0,1.0,1.0,0.0,0.0,503.0,0.0,617.0
122,0.41844892501831055,10.0,1.0,1.0,0.0,0.0,504.0,0.0,615.0
123,0.41844892501831055,11.0,1.0,1.0,0.0,0.0,507.0,0.0,615.0
124,0.41844892501831055,12.0,1.0,1.0,0.0,0.0,505.0,0.0,615.0
125,0.41844892501831055,13.0,1.0,1.0,0.0,0.0,506.0,0.0,615.0
126,0.41844892501831055,14.0,1.0,1.0,0.0,0.0,507.0,0.0,616.0
127,0.41844892501831055,15.0,1.0,1.0,0.0,0.0,508.0,0.0,616.0
128,0.41844892501831055,0.0,1.0,1.0,0.0,0.0,508.0,0.0,620.0
129,0.41844892501831055,1.0,1.0,1.0,0.0,0.0,507.0,0.0,615.0
130,0.41844892501831055,2.0,1.0,1.0,0.0,0.0,507.0,0.0,615.0
131,0.41844892501831055,3.0,1.0,1.0,0.0,0.0,504.0,0.0,617.0
132,0.41844892501831055,4.0,1.0,1.0,0.0,0.0,504.0,0.0,616.0
133,0.41844892501831055,5.0,1.0,1.0,0.0,0.0,504.0,0.0,615.0
134,0.41844892501831055,6.0,1.0,1.0,0.0,0.0,505.0,0.0,615.0
135,0.41844892501831055,7.0,1.0,1.0,0.0,0.0,506.0,0.0,614.0
136,0.41844892501831055,8.0,1.0,1.0,0.0,0.0,505.0,0.0,620.0
137,0.41844892501831055,9.0,1.0,1.0,0.0,0.0,506.0,0.0,616.0
138,0.41844892501831055,10.0,1.0,1.0,0.0,0.0,507.0,0.0,615.0
139,0.41844892501831055,11.0,1.0,1.0,0.0,0.0,507.0,0.0,616.0
140,0.41844892501831055,12.0,1.0,1.0,0.0,0.0,507.0,0.0,615.0
141,0.41844892501831055,13.0,1.0,1.0,0.0,0.0,506.0,0.0,616.0
142,0.41844892501831055,14.0,1.0,1.0,0.0,0.0,506.0,0.0,616.0
143,0.41844892501831055,15.0,1.0,1.0,0.0,0.0,505.0,0.0,616.0
144,0.41844892501831055,0.0,1.0,1.0,0.0,0.0,507.0,0.0,621.0
145,0.41844892501831055,1.0,1.0,1.0,0.0,0.0,507.0,0.0,615.0
146,0.41844892501831055,2.0,1.0,1.0,0.0,0.0,506.0,0.0,617.0
147,0.41844892501831055,3.0,1.0,1.0,0.0,0.0,505.0,0.0,616.0
148,0.41844892501831055,4.0,1.0,1.0,0.0,0.0,506.0,0.0,616.0
149,0.41844892501831055,5.0,1.0,1.0,0.0,0.0,506.0,0.0,616.0
150,0.41844892501831055,6.0,1.0,1.0,0.0,0.0,505.0,0.0,615.0
151,0.41844892501831055,7.0,1.0,1.0,0.0,0.0,504.0,0.0,615.0
152,0.41844892501831055,8.0,1.0,1.0,0.0,0.0,504.0,0.0,620.0
153,0.41844892501831055,9.0,1.0,1.0,0.0,0.0,505.0,0.0,615.0
154,0.41844892501831055,10.0,1.0,1.0,0.0,0.0,506.0,0.0,615.0
155,0.41844892501831055,11.0,1.0,1.0,0.0,0.0,508.0,0.0,615.0
156,0.41844892501831055,12.0,1.0,1.0,0.0,0.0,508.0,0.0,616.0
157,0.41844892501831055,13.0,1.0,1.0,0.0,0.0,508.0,0.0,615.0
158,0.41844892501831055,14.0,1.0,1.0,0.0,0.0,509.0,0.0,616.0
159,0.41844892501831055,15.0,1.0,1.0,0.0,0.0,506.0,0.0,615.0
160,0.41844892501831055,0.0,1.0,1.0,0.0,0.0,505.0,0.0,619.0
161,0.41844892501831055,1.0,1.0,1.0,0.0,0.0,507.0,0.0,616.0
162,0.41844892501831055,2.0,1.0,1.0,0.0,0.0,508.0,0.0,615.0
163,0.41844892501831055,3.0,1.0,1.0,0.0,0.0,506.0,0.0,616.0
164,0.41844892501831055,4.0,1.0,1.0,0.0,0.0,507.0,0.0,615.0
165,0.41844892501831055,5.0,1.0,1.0,0.0,0.0,507.0,0.0,615.0
166,0.41844892501831055,6.0,1.0,1.0,0.0,0.0,508.0,0.0,615.0
167,0.41844892501831055,7.0,1.0,1.0,0.0,0.0,509.0,0.0,615.0
168,0.41844892501831055,8.0,1.0,1.0,0.0,0.0,509.0,0.0,620.0
169,0.41844892501831055,9.0,1.0,1.0,0.0,0.0,508.0,0.0,615.0
170,0.41844892501831055,10.0,1.0,1.0,0.0,0.0,505.0,0.0,615.0
171,0.41844892501831055,11.0,1.0,1.0,0.0,0.0,506.0,0.0,616.0
172,0.41844892501831055,12.0,1.0,1.0,0.0,0.0,505.0,0.0,615.0
173,0.41844892501831055,13.0,1.0,1.0,0.0,0.0,508.0,0.0,616.0
174,0.41844892501831055,14.0,1.0,1.0,0.0,0.0,509.0,0.0,616.0
175,0.41844892501831055,15.0,1.0,1.0,0.0,0.0,508.0,0.0,615.0
176,0.41844892501831055,0.0,1.0,1.0,0.0,0.0,505.0,0.0,620.0
177,0.41844892501831055,1.0,1.0,1.0,0.0,0.0,507.0,0.0,615.0
178,0.41844892501831055,2.0,1.0,1.0,0.0,0.0,505.0,0.0,615.0
179,0.41844892501831055,3.0,1.0,1.0,0.0,0.0,505.0,0.0,616.0
180,0.41844892501831055,4.0,1.0,1.0,0.0,0.0,504.0,0.0,615.0
181,0.41844892501831055,5.0,1.0,1.0,0.0,0.0,505.0,0.0,616.0
182,0.41844892501831055,6.0,1.0,1.0,0.0,0.0,507.0,0.0,615.0
183,0.41844892501831055,7.0,1.0,1.0,0.0,0.0,508.0,0.0,616.0
184,0.41844892501831055,8.0,1.0,1.0,0.0,0.0,507.0,0.0,619.0
185,0.41844892501831055,9.0,1.0,1.0,0.0,0.0,508.0,0.0,615.0
186,0.41844892501831055,10.0,1.0,1.0,0.0,0.0,508.0,0.0,616.0
187,0.41844892501831055,11.0,1.0,1.0,0.0,0.0,509.0,0.0,613.0
188,0.41844892501831055,12.0,1.0,1.0,0.0,0.0,509.0,0.0,616.0
189,0.41844892501831055,13.0,1.0,1.0,0.0,0.0,509.0,0.0,615.0
190,0.41844892501831055,14.0,1.0,1.0,0.0,0.0,509.0,0.0,615.0
191,0.41844892501831055,15.0,1.0,1.0,0.0,0.0,510.0,0.0,615.0
192,0.41844892501831055,0.0,1.0,1.0,0.0,0.0,510.0,0.0,619.0
193,0.41844892501831055,1.0,1.0,1.0,0.0,0.0,510.0,0.0,616.0
194,0.41844892501831055,2.0,1.0,1.0,0.0,0.0,510.0,0.0,616.0
195,0.41844892501831055,3.0,1.0,1.0,0.0,0.0,510.0,0.0,615.0
196,0.41844892501831055,4.0,1.0,1.0,0.0,0.0,509.0,0.0,616.0
197,0.41844892501831055,5.0,1.0,1.0,0.0,0.0,508.0,0.0,616.0
198,0.41844892501831055,6.0,1.0,1.0,0.0,0.0,509.0,0.0,615.0
199,0.41844892501831055,7.0,1.0,1.0,0.0,0.0,508.0,0.0,615.0
200,0.4347226619720459,8.0,1.0,1.0,0.0,0.0,509.0,0.0,619.0
201,0.4347226619720459,9.0,1.0,1.0,0.0,0.0,509.0,0.0,616.0
202,0.4347226619720459,10.0,1.0,1.0,0.0,0.0,508.0,0.0,615.0
203,0.4347226619720459,11.0,1.0,1.0,0.0,0.0,509.0,0.0,615.0
204,0.4347226619720459,12.0,1.0,1.0,0.0,0.0,508.0,0.0,616.0
205,0.4347226619720459,13.0,1.0,1.0,0.0,0.0,505.0,0.0,615.0
206,0.4347226619720459,14.0,1.0,1.0,0.0,0.0,504.0,0.0,615.0
207,0.4347226619720459,15.0,1.0,1.0,0.0,0.0,505.0,0.0,616.0
208,0.4347226619720459,0.0,1.0,1.0,0.0,0.0,507.0,0.0,620.0
209,0.4347226619720459,1.0,1.0,1.0,0.0,0.0,506.0,0.0,616.0
210,0.4347226619720459,2.0,1.0,1.0,0.0,0.0,504.0,0.0,615.0
211,0.4347226619720459,3.0,1.0,1.0,0.0,0.0,503.0,0.0,613.0
212,0.4347226619720459,4.0,1.0,1.0,0.0,0.0,504.0,0.0,616.0
213,0.4347226619720459,5.0,1.0,1.0,0.0,0.0,505.0,0.0,616.0
214,0.4347226619720459,6.0,1.0,1.0,0.0,0.0,508.0,0.0,615.0
215,0.4347226619720459,7.0,1.0,1.0,0.0,0.0,509.0,0.0,615.0
216,0.4347226619720459,8.0,1.0,1.0,0.0,0.0,505.0,0.0,620.0
217,0.4347226619720459,9.0,1.0,1.0,0.0,0.0,505.0,0.0,615.0
218,0.4347226619720459,10.0,1.0,1.0,0.0,0.0,505.0,0.0,616.0
219,0.4347226619720459,11.0,1.0,1.0,0.0,0.0,504.0,0.0,616.0
220,0.4347226619720459,12.0,1.0,1.0,0.0,0.0,506.0,0.0,615.0
221,0.4347226619720459,13.0,1.0,1.0,0.0,0.0,506.0,0.0,616.0
222,0.4347226619720459,14.0,1.0,1.0,0.0,0.0,507.0,0.0,616.0
223,0.4347226619720459,15.0,1.0,1.0,0.0,0.0,509.0,0.0,616.0
224,0.4347226619720459,0.0,1.0,1.0,0.0,0.0,508.0,0.0,619.0
225,0.4347226619720459,1.0,1.0,1.0,0.0,0.0,509.0,0.0,615.0
226,0.4347226619720459,2.0,1.0,1.0,0.0,0.0,508.0,0.0,617.0
227,0.4347226619720459,3.0,1.0,1.0,0.0,0.0,508.0,0.0,615.0
228,0.4347226619720459,4.0,1.0,1.0,0.0,0.0,509.0,0.0,616.0
229,0.4347226619720459,5.0,1.0,1.0,0.0,0.0,507.0,0.0,616.0
230,0.4347226619720459,6.0,1.0,1.0,0.0,0.0,507.0,0.0,616.0
231,0.4347226619720459,7.0,1.0,1.0,0.0,0.0,508.0,0.0,616.0
232,0.4347226619720459,8.0,1.0,1.0,0.0,0.0,507.0,0.0,620.0
233,0.4347226619720459,9.0,1.0,1.0,0.0,0.0,508.0,0.0,617.0
234,0.4347226619720459,10.0,1.0,1.0,0.0,0.0,509.0,0.0,616.0
235,0.4347226619720459,11.0,1.0,1.0,0.0,0.0,507.0,0.0,615.0
236,0.4347226619720459,12.0,1.0,1.0,0.0,0.0,507.0,0.0,616.0
237,0.4347226619720459,13.0,1.0,1.0,0.0,0.0,508.0,0.0,616.0
238,0.4347226619720459,14.0,1.0,1.0,0.0,0.0,508.0,0.0,617.0
239,0.4347226619720459,15.0,1.0,1.0,0.0,0.0,510.0,0.0,615.0
240,0.4347226619720459,0.0,1.0,1.0,0.0,0.0,511.0,0.0,620.0
241,0.4347226619720459,1.0,1.0,1.0,0.0,0.0,508.0,0.0,616.0
242,0.4347226619720459,2.0,1.0,1.0,0.0,0.0,508.0,0.0,615.0
243,0.4347226619720459,3.0,1.0,1.0,0.0,0.0,510.0,0.0,616.0
244,0.4347226619720459,4.0,1.0,1.0,0.0,0.0,508.0,0.0,616.0
245,0.4347226619720459,5.0,1.0,1.0,0.0,0.0,507.0,0.0,616.0
246,0.4347226619720459,6.0,1.0,1.0,0.0,0.0,507.0,0.0,617.0
247,0.4347226619720459,7.0,1.0,1.0,0.0,0.0,509.0,0.0,615.0
248,0.4347226619720459,8.0,1.0,1.0,0.0,0.0,509.0,0.0,621.0
249,0.4347226619720459,9.0,1.0,1.0,0.0,0.0,510.0,0.0,615.0
250,0.4347226619720459,10.0,1.0,1.0,0.0,0.0,508.0,0.0,615.0
251,0.4347226619720459,11.0,1.0,1.0,0.0,0.0,508.0,0.0,616.0
252,0.4347226619720459,12.0,1.0,1.0,0.0,0.0,508.0,0.0,615.0
253,0.4347226619720459,13.0,1.0,1.0,0.0,0.0,508.0,0.0,616.0
254,0.4347226619720459,14.0,1.0,1.0,0.0,0.0,509.0,0.0,615.0
255,0.4347226619720459,15.0,1.0,1.0,0.0,0.0,510.0,0.0,615.0
256,0.4347226619720459,0.0,1.0,1.0,0.0,0.0,508.0,0.0,620.0
257,0.4347226619720459,1.0,1.0,1.0,0.0,0.0,507.0,0.0,615.0
258,0.4347226619720459,2.0,1.0,1.0,0.0,0.0,506.0,0.0,616.0
259,0.4347226619720459,3.0,1.0,1.0,0.0,0.0,506.0,0.0,615.0
260,0.4347226619720459,4.0,1.0,1.0,0.0,0.0,507.0,0.0,615.0
261,0.4347226619720459,5.0,1.0,1.0,0.0,0.0,508.0,0.0,616.0
262,0.4347226619720459,6.0,1.0,1.0,0.0,0.0,509.0,0.0,615.0
263,0.4347226619720459,7.0,1.0,1.0,0.0,0.0,508.0,0.0,616.0
264,0.4347226619720459,8.0,1.0,1.0,0.0,0.0,506.0,0.0,619.0
265,0.4347226619720459,9.0,1.0,1.0,0.0,0.0,506.0,0.0,615.0
266,0.4347226619720459,10.0,1.0,1.0,0.0,0.0,507.0,0.0,616.0
267,0.4347226619720459,11.0,1.0,1.0,0.0,0.0,508.0,0.0,614.0
268,0.4347226619720459,12.0,1.0,1.0,0.0,0.0,509.0,0.0,616.0
269,0.4347226619720459,13.0,1.0,1.0,0.0,0.0,509.0,0.0,616.0
270,0.4347226619720459,14.0,1.0,1.0,0.0,0.0,509.0,0.0,616.0
271,0.4347226619720459,15.0,1.0,1.0,0.0,0.0,507.0,0.0,616.0
272,0.4347226619720459,0.0,1.0,1.0,0.0,0.0,505.0,0.0,620.0
273,0.4347226619720459,1.0,1.0,1.0,0.0,0.0,509.0,0.0,617.0
274,0.4347226619720459,2.0,1.0,1.0,0.0,0.0,508.0,0.0,616.0
275,0.4347226619720459,3.0,1.0,1.0,0.0,0.0,508.0,0.0,611.0
276,0.4347226619720459,4.0,1.0,1.0,0.0,0.0,507.0,0.0,617.0
277,0.4347226619720459,5.0,1.0,1.0,0.0,0.0,508.0,0.0,615.0
278,0.4347226619720459,6.0,1.0,1.0,0.0,0.0,509.0,0.0,616.0
279,0.4347226619720459,7.0,1.0,1.0,0.0,0.0,509.0,0.0,615.0
280,0.4347226619720459,8.0,1.0,1.0,0.0,0.0,509.0,0.0,620.0
281,0.4347226619720459,9.0,1.0,1.0,0.0,0.0,510.0,0.0,617.0
282,0.4347226619720459,10.0,1.0,1.0,0.0,0.0,509.0,0.0,615.0
283,0.4347226619720459,11.0,1.0,1.0,0.0,0.0,508.0,0.0,617.0
284,0.4347226619720459,12.0,1.0,1.0,0.0,0.0,506.0,0.0,617.0
285,0.4347226619720459,13.0,1.0,1.0,0.0,0.0,508.0,0.0,615.0
286,0.4347226619720459,14.0,1.0,1.0,0.0,0.0,509.0,0.0,616.0
287,0.4347226619720459,15.0,1.0,1.0,0.0,0.0,508.0,0.0,615.0
288,0.4347226619720459,0.0,1.0,1.0,0.0,0.0,508.0,0.0,620.0
289,0.4347226619720459,1.0,1.0,1.0,0.0,0.0,507.0,0.0,616.0
290,0.4347226619720459,2.0,1.0,1.0,0.0,0.0,508.0,0.0,615.0
291,0.4347226619720459,3.0,1.0,1.0,0.0,0.0,505.0,0.0,616.0
292,0.4347226619720459,4.0,1.0,1.0,0.0,0.0,504.0,0.0,616.0
293,0.4347226619720459,5.0,1.0,1.0,0.0,0.0,505.0,0.0,617.0
294,0.4347226619720459,6.0,1.0,1.0,0.0,0.0,505.0,0.0,616.0
295,0.4347226619720459,7.0,1.0,1.0,0.0,0.0,507.0,0.0,615.0
296,0.4347226619720459,8.0,1.0,1.0,0.0,0.0,505.0,0.0,620.0
297,0.4347226619720459,9.0,1.0,1.0,0.0,0.0,504.0,0.0,616.0
298,0.4347226619720459,10.0,1.0,1.0,0.0,0.0,505.0,0.0,617.0
299,0.4347226619720459,11.0,1.0,1.0,0.0,0.0,505.0,0.0,616.0
300,0.44714784622192383,12.0,1.0,1.0,0.0,0.0,507.0,0.0,615.0
301,0.44714784622192383,13.0,1.0,1.0,0.0,0.0,503.0,0.0,616.0
302,0.44714784622192383,14.0,1.0,1.0,0.0,0.0,505.0,0.0,616.0
303,0.44714784622192383,15.0,1.0,1.0,0.0,0.0,506.0,0.0,616.0
304,0.44714784622192383,0.0,1.0,1.0,0.0,0.0,507.0,0.0,620.0
305,0.44714784622192383,1.0,1.0,1.0,0.0,0.0,508.0,0.0,615.0
306,0.44714784622192383,2.0,1.0,1.0,0.0,0.0,508.0,0.0,616.0
307,0.44714784622192383,3.0,1.0,1.0,0.0,0.0,507.0,0.0,615.0
308,0.44714784622192383,4.0,1.0,1.0,0.0,0.0,507.0,0.0,617.0
309,0.44714784622192383,5.0,1.0,1.0,0.0,0.0,508.0,0.0,616.0
310,0.44714784622192383,6.0,1.0,1.0,0.0,0.0,507.0,0.0,615.0
311,0.44714784622192383,7.0,1.0,1.0,0.0,0.0,507.0,0.0,616.0
312,0.44714784622192383,8.0,1.0,1.0,0.0,0.0,508.0,0.0,620.0
313,0.44714784622192383,9.0,1.0,1.0,0.0,0.0,508.0,0.0,616.0
314,0.44714784622192383,10.0,1.0,1.0,0.0,0.0,508.0,0.0,615.0
315,0.44714784622192383,11.0,1.0,1.0,0.0,0.0,509.0,0.0,615.0
316,0.44714784622192383,12.0,1.0,1.0,0.0,0.0,507.0,0.0,616.0
317,0.44714784622192383,13.0,1.0,1.0,0.0,0.0,506.0,0.0,615.0
318,0.44714784622192383,14.0,1.0,1.0,0.0,0.0,506.0,0.0,616.0
319,0.44714784622192383,15.0,1.0,1.0,0.0,0.0,504.0,0.0,615.0
320,0.44714784622192383,0.0,1.0,1.0,0.0,0.0,505.0,0.0,620.0
321,0.44714784622192383,1.0,1.0,1.0,0.0,0.0,508.0,0.0,615.0
322,0.44714784622192383,2.0,1.0,1.0,0.0,0.0,509.0,0.0,615.0
323,0.44714784622192383,3.0,1.0,1.0,0.0,0.0,510.0,0.0,615.0
324,0.44714784622192383,4.0,1.0,1.0,0.0,0.0,508.0,0.0,615.0
325,0.44714784622192383,5.0,1.0,1.0,0.0,0.0,509.0,0.0,615.0
326,0.44714784622192383,6.0,1.0,1.0,0.0,0.0,508.0,0.0,616.0
327,0.44714784622192383,7.0,1.0,1.0,0.0,0.0,507.0,0.0,615.0
328,0.44714784622192383,8.0,1.0,1.0,0.0,0.0,508.0,0.0,620.0
329,0.44714784622192383,9.0,1.0,1.0,0.0,0.0,508.0,0.0,616.0
330,0.44714784622192383,10.0,1.0,1.0,0.0,0.0,507.0,0.0,615.0
331,0.44714784622192383,11.0,1.0,1.0,0.0,0.0,507.0,0.0,616.0
332,0.44714784622192383,12.0,1.0,1.0,0.0,0.0,506.0,0.0,615.0
333,0.44714784622192383,13.0,1.0,1.0,0.0,0.0,507.0,0.0,616.0
334,0.44714784622192383,14.0,1.0,1.0,0.0,0.0,506.0,0.0,615.0
335,0.44714784622192383,15.0,1.0,1.0,0.0,0.0,509.0,0.0,614.0
336,0.44714784622192383,0.0,1.0,1.0,0.0,0.0,508.0,0.0,620.0
337,0.44714784622192383,1.0,1.0,1.0,0.0,0.0,510.0,0.0,616.0
338,0.44714784622192383,2.0,1.0,1.0,0.0,0.0,510.0,0.0,616.0
339,0.44714784622192383,3.0,1.0,1.0,0.0,0.0,508.0,0.0,615.0
340,0.44714784622192383,4.0,1.0,1.0,0.0,0.0,507.0,0.0,615.0
341,0.44714784622192383,5.0,1.0,1.0,0.0,0.0,509.0,0.0,616.0
342,0.44714784622192383,6.0,1.0,1.0,0.0,0.0,508.0,0.0,615.0
343,0.44714784622192383,7.0,1.0,1.0,0.0,0.0,507.0,0.0,615.0
344,0.44714784622192383,8.0,1.0,1.0,0.0,0.0,505.0,0.0,620.0
345,0.44714784622192383,9.0,1.0,1.0,0.0,0.0,506.0,0.0,615.0
346,0.44714784622192383,10.0,1.0,1.0,0.0,0.0,507.0,0.0,615.0
347,0.44714784622192383,11.0,1.0,1.0,0.0,0.0,507.0,0.0,614.0
348,0.44714784622192383,12.0,1.0,1.0,0.0,0.0,506.0,0.0,616.0
349,0.44714784622192383,13.0,1.0,1.0,0.0,0.0,506.0,0.0,615.0
350,0.44714784622192383,14.0,1.0,1.0,0.0,0.0,508.0,0.0,615.0
351,0.44714784622192383,15.0,1.0,1.0,0.0,0.0,508.0,0.0,616.0
352,0.44714784622192383,0.0,1.0,1.0,0.0,0.0,508.0,0.0,619.0
353,0.44714784622192383,1.0,1.0,1.0,0.0,0.0,508.0,0.0,617.0
354,0.44714784622192383,2.0,1.0,1.0,0.0,0.0,509.0,0.0,616.0
355,0.44714784622192383,3.0,1.0,1.0,0.0,0.0,508.0,0.0,616.0
356,0.44714784622192383,4.0,1.0,1.0,0.0,0.0,506.0,0.0,616.0
357,0.44714784622192383,5.0,1.0,1.0,0.0,0.0,505.0,0.0,615.0
358,0.44714784622192383,6.0,1.0,1.0,0.0,0.0,507.0,0.0,615.0
359,0.44714784622192383,7.0,1.0,1.0,0.0,0.0,508.0,0.0,616.0
360,0.44714784622192383,8.0,1.0,1.0,0.0,0.0,508.0,0.0,620.0
361,0.44714784622192383,9.0,1.0,1.0,0.0,0.0,509.0,0.0,616.0
362,0.44714784622192383,10.0,1.0,1.0,0.0,0.0,508.0,0.0,616.0
363,0.44714784622192383,11.0,1.0,1.0,0.0,0.0,508.0,0.0,616.0
364,0.44714784622192383,12.0,1.0,1.0,0.0,0.0,508.0,0.0,616.0
365,0.44714784622192383,13.0,1.0,1.0,0.0,0.0,508.0,0.0,615.0
366,0.44714784622192383,14.0,1.0,1.0,0.0,0.0,507.0,0.0,616.0
367,0.44714784622192383,15.0,1.0,1.0,0.0,0.0,507.0,0.0,614.0
368,0.44714784622192383,0.0,1.0,1.0,0.0,0.0,507.0,0.0,620.0
369,0.44714784622192383,1.0,1.0,1.0,0.0,0.0,505.0,0.0,615.0
370,0.44714784622192383,2.0,1.0,1.0,0.0,0.0,505.0,0.0,615.0
371,0.44714784622192383,3.0,1.0,1.0,0.0,0.0,507.0,0.0,616.0
372,0.44714784622192383,4.0,1.0,1.0,0.0,0.0,507.0,0.0,615.0
373,0.44714784622192383,5.0,1.0,1.0,0.0,0.0,509.0,0.0,616.0
374,0.44714784622192383,6.0,1.0,1.0,0.0,0.0,510.0,0.0,615.0
375,0.44714784622192383,7.0,1.0,1.0,0.0,0.0,510.0,0.0,614.0
376,0.44714784622192383,8.0,1.0,1.0,0.0,0.0,510.0,0.0,620.0
377,0.44714784622192383,9.0,1.0,1.0,0.0,0.0,508.0,0.0,615.0
378,0.44714784622192383,10.0,1.0,1.0,0.0,0.0,509.0,0.0,616.0
379,0.44714784622192383,11.0,1.0,1.0,0.0,0.0,507.0,0.0,616.0
380,0.44714784622192383,12.0,1.0,1.0,0.0,0.0,505.0,0.0,615.0
381,0.44714784622192383,13.0,1.0,1.0,0.0,0.0,507.0,0.0,616.0
382,0.44714784622192383,14.0,1.0,1.0,0.0,0.0,507.0,0.0,615.0
383,0.44714784622192383,15.0,1.0,1.0,0.0,0.0,507.0,0.0,616.0
384,0.44714784622192383,0.0,1.0,1.0,0.0,0.0,507.0,0.0,620.0
385,0.44714784622192383,1.0,1.0,1.0,0.0,0.0,505.0,0.0,615.0
386,0.44714784622192383,2.0,1.0,1.0,0.0,0.0,506.0,0.0,617.0
387,0.44714784622192383,3.0,1.0,1.0,0.0,0.0,508.0,0.0,615.0
388,0.44714784622192383,4.0,1.0,1.0,0.0,0.0,507.0,0.0,616.0
389,0.44714784622192383,5.0,1.0,1.0,0.0,0.0,507.0,0.0,615.0
390,0.44714784622192383,6.0,1.0,1.0,0.0,0.0,506.0,0.0,615.0
391,0.44714784622192383,7.0,1.0,1.0,0.0,0.0,506.0,0.0,616.0
392,0.44714784622192383,8.0,1.0,1.0,0.0,0.0,508.0,0.0,619.0
393,0.44714784622192383,9.0,1.0,1.0,0.0,0.0,510.0,0.0,616.0
394,0.44714784622192383,10.0,1.0,1.0,0.0,0.0,508.0,0.0,616.0
395,0.44714784622192383,11.0,1.0,1.0,0.0,0.0,510.0,0.0,615.0
396,0.44714784622192383,12.0,1.0,1.0,0.0,0.0,510.0,0.0,616.0
397,0.44714784622192383,13.0,1.0,1.0,0.0,0.0,510.0,0.0,616.0
398,0.44714784622192383,14.0,1.0,1.0,0.0,0.0,510.0,0.0,616.0
399,0.44714784622192383,15.0,1.0,1.0,0.0,0.0,508.0,0.0,615.0
400,0.5294489860534668,0.0,1.0,1.0,0.0,0.0,508.0,0.0,619.0
401,0.5294489860534668,1.0,1.0,1.0,0.0,0.0,508.0,0.0,616.0
402,0.5294489860534668,2.0,1.0,1.0,0.0,0.0,508.0,0.0,615.0
403,0.5294489860534668,3.0,1.0,1.0,0.0,0.0,506.0,0.0,616.0
404,0.5294489860534668,4.0,1.0,1.0,0.0,0.0,504.0,0.0,616.0
405,0.5294489860534668,5.0,1.0,1.0,0.0,0.0,502.0,0.0,615.0
406,0.5294489860534668,6.0,1.0,1.0,0.0,0.0,503.0,0.0,615.0
407,0.5294489860534668,7.0,1.0,1.0,0.0,0.0,506.0,0.0,615.0
408,0.5294489860534668,8.0,1.0,1.0,0.0,0.0,504.0,0.0,621.0
409,0.5294489860534668,9.0,1.0,1.0,0.0,0.0,503.0,0.0,615.0
410,0.5294489860534668,10.0,1.0,1.0,0.0,0.0,503.0,0.0,615.0
411,0.5294489860534668,11.0,1.0,1.0,0.0,0.0,503.0,0.0,616.0
412,0.5294489860534668,12.0,1.0,1.0,0.0,0.0,503.0,0.0,615.0
413,0.5294489860534668,13.0,1.0,1.0,0.0,0.0,506.0,0.0,616.0
414,0.5294489860534668,14.0,1.0,1.0,0.0,0.0,506.0,0.0,615.0
415,0.5294489860534668,15.0,1.0,1.0,0.0,0.0,507.0,0.0,615.0
416,0.5294489860534668,0.0,1.0,1.0,0.0,0.0,505.0,0.0,621.0
417,0.5294489860534668,1.0,1.0,1.0,0.0,0.0,503.0,0.0,616.0
418,0.5294489860534668,2.0,1.0,1.0,0.0,0.0,507.0,0.0,617.0
419,0.5294489860534668,3.0,1.0,1.0,0.0,0.0,506.0,0.0,616.0
420,0.5294489860534668,4.0,1.0,1.0,0.0,0.0,505.0,0.0,615.0
421,0.5294489860534668,5.0,1.0,1.0,0.0,0.0,504.0,0.0,615.0
422,0.5294489860534668,6.0,1.0,1.0,0.0,0.0,503.0,0.0,615.0
423,0.5294489860534668,7.0,1.0,1.0,0.0,0.0,506.0,0.0,615.0
424,0.5294489860534668,8.0,1.0,1.0,0.0,0.0,507.0,0.0,620.0
425,0.5294489860534668,9.0,1.0,1.0,0.0,0.0,508.0,0.0,615.0
426,0.5294489860534668,10.0,1.0,1.0,0.0,0.0,509.0,0.0,616.0
427,0.5294489860534668,11.0,1.0,1.0,0.0,0.0,508.0,0.0,614.0
428,0.5294489860534668,12.0,1.0,1.0,0.0,0.0,508.0,0.0,615.0
429,0.5294489860534668,13.0,1.0,1.0,0.0,0.0,506.0,0.0,615.0
430,0.5294489860534668,14.0,1.0,1.0,0.0,0.0,506.0,0.0,615.0
431,0.5294489860534668,15.0,1.0,1.0,0.0,0.0,505.0,0.0,616.0
432,0.5294489860534668,0.0,1.0,1.0,0.0,0.0,504.0,0.0,620.0
433,0.5294489860534668,1.0,1.0,1.0,0.0,0.0,504.0,0.0,617.0
434,0.5294489860534668,2.0,1.0,1.0,0.0,0.0,505.0,0.0,615.0
435,0.5294489860534668,3.0,1.0,1.0,0.0,0.0,504.0,0.0,615.0
436,0.5294489860534668,4.0,1.0,1.0,0.0,0.0,503.0,0.0,616.0
437,0.5294489860534668,5.0,1.0,1.0,0.0,0.0,502.0,0.0,616.0
438,0.5294489860534668,6.0,1.0,1.0,0.0,0.0,503.0,0.0,617.0
439,0.5294489860534668,7.0,1.0,1.0,0.0,0.0,503.0,0.0,616.0
440,0.5294489860534668,8.0,1.0,1.0,0.0,0.0,504.0,0.0,619.0
441,0.5294489860534668,9.0,1.0,1.0,0.0,0.0,505.0,0.0,616.0
442,0.5294489860534668,10.0,1.0,1.0,0.0,0.0,506.0,0.0,615.0
443,0.5294489860534668,11.0,1.0,1.0,0.0,0.0,506.0,0.0,616.0
444,0.5294489860534668,12.0,1.0,1.0,0.0,0.0,504.0,0.0,616.0
445,0.5294489860534668,13.0,1.0,1.0,0.0,0.0,505.0,0.0,615.0
446,0.5294489860534668,14.0,1.0,1.0,0.0,0.0,507.0,0.0,617.0
447,0.5294489860534668,15.0,1.0,1.0,0.0,0.0,508.0,0.0,615.0
448,0.5294489860534668,0.0,1.0,1.0,0.0,0.0,509.0,0.0,620.0
449,0.5294489860534668,1.0,1.0,1.0,0.0,0.0,508.0,0.0,615.0
450,0.5294489860534668,2.0,1.0,1.0,0.0,0.0,508.0,0.0,615.0
451,0.5294489860534668,3.0,1.0,1.0,0.0,0.0,510.0,0.0,616.0
452,0.5294489860534668,4.0,1.0,1.0,0.0,0.0,507.0,0.0,615.0
453,0.5294489860534668,5.0,1.0,1.0,0.0,0.0,510.0,0.0,617.0
454,0.5294489860534668,6.0,1.0,1.0,0.0,0.0,510.0,0.0,616.0
455,0.5294489860534668,7.0,1.0,1.0,0.0,0.0,510.0,0.0,616.0
456,0.5294489860534668,8.0,1.0,1.0,0.0,0.0,509.0,0.0,620.0
457,0.5294489860534668,9.0,1.0,1.0,0.0,0.0,509.0,0.0,615.0
458,0.5294489860534668,10.0,1.0,1.0,0.0,0.0,511.0,0.0,616.0
459,0.5294489860534668,11.0,1.0,1.0,0.0,0.0,511.0,0.0,615.0
460,0.5294489860534668,12.0,1.0,1.0,0.0,0.0,511.0,0.0,615.0
461,0.5294489860534668,13.0,1.0,1.0,0.0,0.0,511.0,0.0,616.0
462,0.5294489860534668,14.0,1.0,1.0,0.0,0.0,510.0,0.0,615.0
463,0.5294489860534668,15.0,1.0,1.0,0.0,0.0,511.0,0.0,616.0
464,0.5294489860534668,0.0,1.0,1.0,0.0,0.0,511.0,0.0,620.0
465,0.5294489860534668,1.0,1.0,1.0,0.0,0.0,511.0,0.0,615.0
466,0.5294489860534668,2.0,1.0,1.0,0.0,0.0,510.0,0.0,616.0
467,0.5294489860534668,3.0,1.0,1.0,0.0,0.0,508.0,0.0,614.0
468,0.5294489860534668,4.0,1.0,1.0,0.0,0.0,508.0,0.0,616.0
469,0.5294489860534668,5.0,1.0,1.0,0.0,0.0,508.0,0.0,617.0
470,0.5294489860534668,6.0,1.0,1.0,0.0,0.0,508.0,0.0,616.0
471,0.5294489860534668,7.0,1.0,1.0,0.0,0.0,508.0,0.0,616.0
472,0.5294489860534668,8.0,1.0,1.0,0.0,0.0,507.0,0.0,620.0
473,0.5294489860534668,9.0,1.0,1.0,0.0,0.0,506.0,0.0,616.0
474,0.5294489860534668,10.0,1.0,1.0,0.0,0.0,507.0,0.0,616.0
475,0.5294489860534668,11.0,1.0,1.0,0.0,0.0,509.0,0.0,615.0
476,0.5294489860534668,12.0,1.0,1.0,0.0,0.0,508.0,0.0,617.0
477,0.5294489860534668,13.0,1.0,1.0,0.0,0.0,507.0,0.0,616.0
478,0.5294489860534668,14.0,1.0,1.0,0.0,0.0,507.0,0.0,616.0
479,0.5294489860534668,15.0,1.0,1.0,0.0,0.0,507.0,0.0,616.0
480,0.5294489860534668,0.0,1.0,1.0,0.0,0.0,508.0,0.0,619.0
481,0.5294489860534668,1.0,1.0,1.0,0.0,0.0,508.0,0.0,615.0
482,0.5294489860534668,2.0,1.0,1.0,0.0,0.0,510.0,0.0,615.0
483,0.5294489860534668,3.0,1.0,1.0,0.0,0.0,510.0,0.0,615.0
484,0.5294489860534668,4.0,1.0,1.0,0.0,0.0,509.0,0.0,616.0
485,0.5294489860534668,5.0,1.0,1.0,0.0,0.0,509.0,0.0,616.0
486,0.5294489860534668,6.0,1.0,1.0,0.0,0.0,508.0,0.0,616.0
487,0.5294489860534668,7.0,1.0,1.0,0.0,0.0,506.0,0.0,615.0
488,0.5294489860534668,8.0,1.0,1.0,0.0,0.0,505.0,0.0,620.0
489,0.5294489860534668,9.0,1.0,1.0,0.0,0.0,505.0,0.0,616.0
490,0.5294489860534668,10.0,1.0,1.0,0.0,0.0,504.0,0.0,615.0
491,0.5294489860534668,11.0,1.0,1.0,0.0,0.0,504.0,0.0,616.0
492,0.5294489860534668,12.0,1.0,1.0,0.0,0.0,504.0,0.0,616.0
493,0.5294489860534668,13.0,1.0,1.0,0.0,0.0,505.0,0.0,616.0
494,0.5294489860534668,14.0,1.0,1.0,0.0,0.0,507.0,0.0,616.0
495,0.5294489860534668,15.0,1.0,1.0,0.0,0.0,510.0,0.0,615.0
496,0.5294489860534668,0.0,1.0,1.0,0.0,0.0,507.0,0.0,620.0
497,0.5294489860534668,1.0,1.0,1.0,0.0,0.0,508.0,0.0,615.0
498,0.5294489860534668,2.0,1.0,1.0,0.0,0.0,506.0,0.0,615.0
499,0.5294489860534668,3.0,1.0,1.0,0.0,0.0,508.0,0.0,616.0
500,0.6094436645507812,4.0,1.0,1.0,0.0,0.0,509.0,0.0,615.0
501,0.6094436645507812,5.0,1.0,1.0,0.0,0.0,509.0,0.0,616.0
502,0.6094436645507812,6.0,1.0,1.0,0.0,0.0,510.0,0.0,615.0
503,0.6094436645507812,7.0,1.0,1.0,0.0,0.0,509.0,0.0,616.0
504,0.6094436645507812,8.0,1.0,1.0,0.0,0.0,508.0,0.0,619.0
505,0.6094436645507812,9.0,1.0,1.0,0.0,0.0,508.0,0.0,615.0
506,0.6094436645507812,10.0,1.0,1.0,0.0,0.0,508.0,0.0,616.0
507,0.6094436645507812,11.0,1.0,1.0,0.0,0.0,510.0,0.0,615.0
508,0.6094436645507812,12.0,1.0,1.0,0.0,0.0,508.0,0.0,616.0
509,0.6094436645507812,13.0,1.0,1.0,0.0,0.0,508.0,0.0,616.0
510,0.6094436645507812,14.0,1.0,1.0,0.0,0.0,509.0,0.0,615.0
511,0.6094436645507812,15.0,1.0,1.0,0.0,0.0,508.0,0.0,617.0
512,0.6094436645507812,0.0,1.0,1.0,0.0,0.0,508.0,0.0,620.0
513,0.6094436645507812,1.0,1.0,1.0,0.0,0.0,508.0,0.0,615.0
514,0.6094436645507812,2.0,1.0,1.0,0.0,0.0,508.0,0.0,616.0
515,0.6094436645507812,3.0,1.0,1.0,0.0,0.0,508.0,0.0,615.0
516,0.6094436645507812,4.0,1.0,1.0,0.0,0.0,507.0,0.0,616.0
517,0.6094436645507812,5.0,1.0,1.0,0.0,0.0,508.0,0.0,615.0
518,0.6094436645507812,6.0,1.0,1.0,0.0,0.0,510.0,0.0,616.0
519,0.6094436645507812,7.0,1.0,1.0,0.0,0.0,508.0,0.0,615.0
520,0.6094436645507812,8.0,1.0,1.0,0.0,0.0,508.0,0.0,619.0
521,0.6094436645507812,9.0,1.0,1.0,0.0,0.0,508.0,0.0,616.0
522,0.6094436645507812,10.0,1.0,1.0,0.0,0.0,508.0,0.0,615.0
523,0.6094436645507812,11.0,1.0,1.0,0.0,0.0,508.0,0.0,613.0
524,0.6094436645507812,12.0,1.0,1.0,0.0,0.0,508.0,0.0,616.0
525,0.6094436645507812,13.0,1.0,1.0,0.0,0.0,508.0,0.0,615.0
526,0.6094436645507812,14.0,1.0,1.0,0.0,0.0,507.0,0.0,615.0
527,0.6094436645507812,15.0,1.0,1.0,0.0,0.0,508.0,0.0,614.0
528,0.6094436645507812,0.0,1.0,1.0,0.0,0.0,510.0,0.0,620.0
529,0.6094436645507812,1.0,1.0,1.0,0.0,0.0,507.0,0.0,615.0
530,0.6094436645507812,2.0,1.0,1.0,0.0,0.0,508.0,0.0,615.0
531,0.6094436645507812,3.0,1.0,1.0,0.0,0.0,508.0,0.0,616.0
532,0.6094436645507812,4.0,1.0,1.0,0.0,0.0,507.0,0.0,616.0
533,0.6094436645507812,5.0,1.0,1.0,0.0,0.0,508.0,0.0,616.0
534,0.6094436645507812,6.0,1.0,1.0,0.0,0.0,508.0,0.0,615.0
535,0.6094436645507812,7.0,1.0,1.0,0.0,0.0,509.0,0.0,615.0
536,0.6094436645507812,8.0,1.0,1.0,0.0,0.0,508.0,0.0,620.0
537,0.6094436645507812,9.0,1.0,1.0,0.0,0.0,507.0,0.0,615.0
538,0.6094436645507812,10.0,1.0,1.0,0.0,0.0,507.0,0.0,616.0
539,0.6094436645507812,11.0,1.0,1.0,0.0,0.0,506.0,0.0,616.0
540,0.6094436645507812,12.0,1.0,1.0,0.0,0.0,505.0,0.0,615.0
541,0.6094436645507812,13.0,1.0,1.0,0.0,0.0,505.0,0.0,616.0
542,0.6094436645507812,14.0,1.0,1.0,0.0,0.0,506.0,0.0,615.0
543,0.6094436645507812,15.0,1.0,1.0,0.0,0.0,507.0,0.0,615.0
544,0.6094436645507812,0.0,1.0,1.0,0.0,0.0,505.0,0.0,619.0
545,0.6094436645507812,1.0,1.0,1.0,0.0,0.0,504.0,0.0,615.0
546,0.6094436645507812,2.0,1.0,1.0,0.0,0.0,503.0,0.0,616.0
547,0.6094436645507812,3.0,1.0,1.0,0.0,0.0,504.0,0.0,615.0
548,0.6094436645507812,4.0,1.0,1.0,0.0,0.0,506.0,0.0,616.0
549,0.6094436645507812,5.0,1.0,1.0,0.0,0.0,504.0,0.0,615.0
550,0.6094436645507812,6.0,1.0,1.0,0.0,0.0,502.0,0.0,615.0
551,0.6094436645507812,7.0,1.0,1.0,0.0,0.0,502.0,0.0,616.0
552,0.6094436645507812,8.0,1.0,1.0,0.0,0.0,504.0,0.0,619.0
553,0.6094436645507812,9.0,1.0,1.0,0.0,0.0,507.0,0.0,616.0
554,0.6094436645507812,10.0,1.0,1.0,0.0,0.0,507.0,0.0,615.0
555,0.6094436645507812,11.0,1.0,1.0,0.0,0.0,507.0,0.0,615.0
556,0.6094436645507812,12.0,1.0,1.0,0.0,0.0,507.0,0.0,616.0
557,0.6094436645507812,13.0,1.0,1.0,0.0,0.0,506.0,0.0,615.0
558,0.6094436645507812,14.0,1.0,1.0,0.0,0.0,508.0,0.0,616.0
559,0.6094436645507812,15.0,1.0,1.0,0.0,0.0,506.0,0.0,615.0
560,0.6094436645507812,0.0,1.0,1.0,0.0,0.0,504.0,0.0,619.0
561,0.6094436645507812,1.0,1.0,1.0,0.0,0.0,504.0,0.0,616.0
562,0.6094436645507812,2.0,1.0,1.0,0.0,0.0,504.0,0.0,616.0
563,0.6094436645507812,3.0,1.0,1.0,0.0,0.0,506.0,0.0,614.0
564,0.6094436645507812,4.0,1.0,1.0,0.0,0.0,505.0,0.0,616.0
565,0.6094436645507812,5.0,1.0,1.0,0.0,0.0,505.0,0.0,616.0
566,0.6094436645507812,6.0,1.0,1.0,0.0,0.0,505.0,0.0,616.0
567,0.6094436645507812,7.0,1.0,1.0,0.0,0.0,504.0,0.0,614.0
568,0.6094436645507812,8.0,1.0,1.0,0.0,0.0,503.0,0.0,620.0
569,0.6094436645507812,9.0,1.0,1.0,0.0,0.0,504.0,0.0,616.0
570,0.6094436645507812,10.0,1.0,1.0,0.0,0.0,503.0,0.0,615.0
571,0.6094436645507812,11.0,1.0,1.0,0.0,0.0,503.0,0.0,616.0
572,0.6094436645507812,12.0,1.0,1.0,0.0,0.0,503.0,0.0,616.0
573,0.6094436645507812,13.0,1.0,1.0,0.0,0.0,508.0,0.0,616.0
574,0.6094436645507812,14.0,1.0,1.0,0.0,0.0,509.0,0.0,616.0
575,0.6094436645507812,15.0,1.0,1.0,0.0,0.0,510.0,0.0,615.0
576,0.6094436645507812,0.0,1.0,1.0,0.0,0.0,508.0,0.0,620.0
577,0.6094436645507812,1.0,1.0,1.0,0.0,0.0,508.0,0.0,615.0
578,0.6094436645507812,2.0,1.0,1.0,0.0,0.0,509.0,0.0,616.0
579,0.6094436645507812,3.0,1.0,1.0,0.0,0.0,508.0,0.0,616.0
580,0.6094436645507812,4.0,1.0,1.0,0.0,0.0,506.0,0.0,615.0
581,0.6094436645507812,5.0,1.0,1.0,0.0,0.0,505.0,0.0,616.0
582,0.6094436645507812,6.0,1.0,1.0,0.0,0.0,505.0,0.0,616.0
583,0.6094436645507812,7.0,1.0,1.0,0.0,0.0,508.0,0.0,616.0
584,0.6094436645507812,8.0,1.0,1.0,0.0,0.0,507.0,0.0,620.0
585,0.6094436645507812,9.0,1.0,1.0,0.0,0.0,508.0,0.0,615.0
586,0.6094436645507812,10.0,1.0,1.0,0.0,0.0,509.0,0.0,617.0
587,0.6094436645507812,11.0,1.0,1.0,0.0,0.0,508.0,0.0,612.0
588,0.6094436645507812,12.0,1.0,1.0,0.0,0.0,507.0,0.0,617.0
589,0.6094436645507812,13.0,1.0,1.0,0.0,0.0,506.0,0.0,616.0
590,0.6094436645507812,14.0,1.0,1.0,0.0,0.0,504.0,0.0,615.0
591,0.6094436645507812,15.0,1.0,1.0,0.0,0.0,503.0,0.0,616.0
592,0.6094436645507812,0.0,1.0,1.0,0.0,0.0,502.0,0.0,620.0
593,0.6094436645507812,1.0,1.0,1.0,0.0,0.0,504.0,0.0,616.0
594,0.6094436645507812,2.0,1.0,1.0,0.0,0.0,508.0,0.0,616.0
595,0.6094436645507812,3.0,1.0,1.0,0.0,0.0,508.0,0.0,614.0
596,0.6094436645507812,4.0,1.0,1.0,0.0,0.0,507.0,0.0,616.0
597,0.6094436645507812,5.0,1.0,1.0,0.0,0.0,505.0,0.0,615.0
598,0.6094436645507812,6.0,1.0,1.0,0.0,0.0,504.0,0.0,616.0
599,0.6094436645507812,7.0,1.0,1.0,0.0,0.0,503.0,0.0,615.0
600,0.7096068859100342,8.0,1.0,1.0,0.0,0.0,503.0,0.0,619.0
601,0.7096068859100342,9.0,1.0,1.0,0.0,0.0,504.0,0.0,615.0
602,0.7096068859100342,10.0,1.0,1.0,0.0,0.0,505.0,0.0,615.0
603,0.7096068859100342,11.0,1.0,1.0,0.0,0.0,507.0,0.0,615.0
604,0.7096068859100342,12.0,1.0,1.0,0.0,0.0,507.0,0.0,616.0
605,0.7096068859100342,13.0,1.0,1.0,0.0,0.0,507.0,0.0,615.0
606,0.7096068859100342,14.0,1.0,1.0,0.0,0.0,506.0,0.0,616.0
607,0.7096068859100342,15.0,1.0,1.0,0.0,0.0,505.0,0.0,614.0
608,0.7096068859100342,0.0,1.0,1.0,0.0,0.0,507.0,0.0,621.0
609,0.7096068859100342,1.0,1.0,1.0,0.0,0.0,508.0,0.0,616.0
610,0.7096068859100342,2.0,1.0,1.0,0.0,0.0,508.0,0.0,615.0
611,0.7096068859100342,3.0,1.0,1.0,0.0,0.0,507.0,0.0,616.0
612,0.7096068859100342,4.0,1.0,1.0,0.0,0.0,507.0,0.0,615.0
613,0.7096068859100342,5.0,1.0,1.0,0.0,0.0,508.0,0.0,616.0
614,0.7096068859100342,6.0,1.0,1.0,0.0,0.0,508.0,0.0,615.0
615,0.7096068859100342,7.0,1.0,1.0,0.0,0.0,507.0,0.0,615.0
616,0.7096068859100342,8.0,1.0,1.0,0.0,0.0,504.0,0.0,619.0
617,0.7096068859100342,9.0,1.0,1.0,0.0,0.0,505.0,0.0,615.0
618,0.7096068859100342,10.0,1.0,1.0,0.0,0.0,506.0,0.0,616.0
619,0.7096068859100342,11.0,1.0,1.0,0.0,0.0,508.0,0.0,615.0
620,0.7096068859100342,12.0,1.0,1.0,0.0,0.0,507.0,0.0,616.0
621,0.7096068859100342,13.0,1.0,1.0,0.0,0.0,506.0,0.0,617.0
622,0.7096068859100342,14.0,1.0,1.0,0.0,0.0,505.0,0.0,615.0
623,0.7096068859100342,15.0,1.0,1.0,0.0,0.0,507.0,0.0,616.0
624,0.7096068859100342,0.0,1.0,1.0,0.0,0.0,505.0,0.0,620.0
625,0.7096068859100342,1.0,1.0,1.0,0.0,0.0,504.0,0.0,615.0
626,0.7096068859100342,2.0,1.0,1.0,0.0,0.0,504.0,0.0,616.0
627,0.7096068859100342,3.0,1.0,1.0,0.0,0.0,505.0,0.0,612.0
628,0.7096068859100342,4.0,1.0,1.0,0.0,0.0,506.0,0.0,616.0
629,0.7096068859100342,5.0,1.0,1.0,0.0,0.0,508.0,0.0,615.0
630,0.7096068859100342,6.0,1.0,1.0,0.0,0.0,507.0,0.0,615.0
631,0.7096068859100342,7.0,1.0,1.0,0.0,0.0,505.0,0.0,615.0
632,0.7096068859100342,8.0,1.0,1.0,0.0,0.0,505.0,0.0,619.0
633,0.7096068859100342,9.0,1.0,1.0,0.0,0.0,506.0,0.0,617.0
634,0.7096068859100342,10.0,1.0,1.0,0.0,0.0,507.0,0.0,615.0
635,0.7096068859100342,11.0,1.0,1.0,0.0,0.0,508.0,0.0,615.0
636,0.7096068859100342,12.0,1.0,1.0,0.0,0.0,507.0,0.0,616.0
637,0.7096068859100342,13.0,1.0,1.0,0.0,0.0,507.0,0.0,615.0
638,0.7096068859100342,14.0,1.0,1.0,0.0,0.0,508.0,0.0,616.0
639,0.7096068859100342,15.0,1.0,1.0,0.0,0.0,508.0,0.0,615.0
640,0.7096068859100342,0.0,1.0,1.0,0.0,0.0,507.0,0.0,620.0
641,0.7096068859100342,1.0,1.0,1.0,0.0,0.0,508.0,0.0,616.0
642,0.7096068859100342,2.0,1.0,1.0,0.0,0.0,507.0,0.0,615.0
643,0.7096068859100342,3.0,1.0,1.0,0.0,0.0,508.0,0.0,615.0
644,0.7096068859100342,4.0,1.0,1.0,0.0,0.0,508.0,0.0,615.0
645,0.7096068859100342,5.0,1.0,1.0,0.0,0.0,509.0,0.0,615.0
646,0.7096068859100342,6.0,1.0,1.0,0.0,0.0,508.0,0.0,615.0
647,0.7096068859100342,7.0,1.0,1.0,0.0,0.0,507.0,0.0,614.0
648,0.7096068859100342,8.0,1.0,1.0,0.0,0.0,507.0,0.0,621.0
649,0.7096068859100342,9.0,1.0,1.0,0.0,0.0,507.0,0.0,615.0
650,0.7096068859100342,10.0,1.0,1.0,0.0,0.0,508.0,0.0,615.0
651,0.7096068859100342,11.0,1.0,1.0,0.0,0.0,508.0,0.0,615.0
652,0.7096068859100342,12.0,1.0,1.0,0.0,0.0,508.0,0.0,615.0
653,0.7096068859100342,13.0,1.0,1.0,0.0,0.0,510.0,0.0,616.0
654,0.7096068859100342,14.0,1.0,1.0,0.0,0.0,508.0,0.0,616.0
655,0.7096068859100342,15.0,1.0,1.0,0.0,0.0,509.0,0.0,615.0
656,0.7096068859100342,0.0,1.0,1.0,0.0,0.0,510.0,0.0,621.0
657,0.7096068859100342,1.0,1.0,1.0,0.0,0.0,510.0,0.0,615.0
658,0.7096068859100342,2.0,1.0,1.0,0.0,0.0,511.0,0.0,616.0
659,0.7096068859100342,3.0,1.0,1.0,0.0,0.0,508.0,0.0,616.0
660,0.7096068859100342,4.0,1.0,1.0,0.0,0.0,508.0,0.0,615.0
661,0.7096068859100342,5.0,1.0,1.0,0.0,0.0,510.0,0.0,617.0
662,0.7096068859100342,6.0,1.0,1.0,0.0,0.0,510.0,0.0,615.0
663,0.7096068859100342,7.0,1.0,1.0,0.0,0.0,508.0,0.0,616.0
664,0.7096068859100342,8.0,1.0,1.0,0.0,0.0,506.0,0.0,620.0
665,0.7096068859100342,9.0,1.0,1.0,0.0,0.0,504.0,0.0,615.0
666,0.7096068859100342,10.0,1.0,1.0,0.0,0.0,504.0,0.0,616.0
667,0.7096068859100342,11.0,1.0,1.0,0.0,0.0,505.0,0.0,612.0
668,0.7096068859100342,12.0,1.0,1.0,0.0,0.0,504.0,0.0,616.0
669,0.7096068859100342,13.0,1.0,1.0,0.0,0.0,502.0,0.0,615.0
670,0.7096068859100342,14.0,1.0,1.0,0.0,0.0,503.0,0.0,615.0
671,0.7096068859100342,15.0,1.0,1.0,0.0,0.0,503.0,0.0,616.0
672,0.7096068859100342,0.0,1.0,1.0,0.0,0.0,502.0,0.0,619.0
673,0.7096068859100342,1.0,1.0,1.0,0.0,0.0,504.0,0.0,616.0
674,0.7096068859100342,2.0,1.0,1.0,0.0,0.0,505.0,0.0,615.0
675,0.7096068859100342,3.0,1.0,1.0,0.0,0.0,506.0,0.0,615.0
676,0.7096068859100342,4.0,1.0,1.0,0.0,0.0,507.0,0.0,615.0
677,0.7096068859100342,5.0,1.0,1.0,0.0,0.0,507.0,0.0,615.0
678,0.7096068859100342,6.0,1.0,1.0,0.0,0.0,507.0,0.0,616.0
679,0.7096068859100342,7.0,1.0,1.0,0.0,0.0,505.0,0.0,616.0
680,0.7096068859100342,8.0,1.0,1.0,0.0,0.0,506.0,0.0,619.0
681,0.7096068859100342,9.0,1.0,1.0,0.0,0.0,506.0,0.0,616.0
682,0.7096068859100342,10.0,1.0,1.0,0.0,0.0,508.0,0.0,615.0
683,0.7096068859100342,11.0,1.0,1.0,0.0,0.0,511.0,0.0,615.0
684,0.7096068859100342,12.0,1.0,1.0,0.0,0.0,511.0,0.0,616.0
685,0.7096068859100342,13.0,1.0,1.0,0.0,0.0,509.0,0.0,615.0
686,0.7096068859100342,14.0,1.0,1.0,0.0,0.0,509.0,0.0,615.0
687,0.7096068859100342,15.0,1.0,1.0,0.0,0.0,508.0,0.0,615.0
688,0.7096068859100342,0.0,1.0,1.0,0.0,0.0,506.0,0.0,620.0
689,0.7096068859100342,1.0,1.0,1.0,0.0,0.0,506.0,0.0,616.0
690,0.7096068859100342,2.0,1.0,1.0,0.0,0.0,506.0,0.0,616.0
691,0.7096068859100342,3.0,1.0,1.0,0.0,0.0,507.0,0.0,614.0
692,0.7096068859100342,4.0,1.0,1.0,0.0,0.0,506.0,0.0,615.0
693,0.7096068859100342,5.0,1.0,1.0,0.0,0.0,508.0,0.0,616.0
694,0.7096068859100342,6.0,1.0,1.0,0.0,0.0,510.0,0.0,616.0
695,0.7096068859100342,7.0,1.0,1.0,0.0,0.0,509.0,0.0,614.0
696,0.7096068859100342,8.0,1.0,1.0,0.0,0.0,507.0,0.0,620.0
697,0.7096068859100342,9.0,1.0,1.0,0.0,0.0,506.0,0.0,616.0
698,0.7096068859100342,10.0,1.0,1.0,0.0,0.0,506.0,0.0,616.0
699,0.7096068859100342,11.0,1.0,1.0,0.0,0.0,506.0,0.0,616.0
700,0.8416657447814941,12.0,1.0,1.0,0.0,0.0,504.0,0.0,615.0
701,0.8416657447814941,13.0,1.0,1.0,0.0,0.0,503.0,0.0,617.0
702,0.8416657447814941,14.0,1.0,1.0,0.0,0.0,504.0,0.0,616.0
703,0.8416657447814941,15.0,1.0,1.0,0.0,0.0,506.0,0.0,616.0
704,0.8416657447814941,0.0,1.0,1.0,0.0,0.0,506.0,0.0,620.0
705,0.8416657447814941,1.0,1.0,1.0,0.0,0.0,507.0,0.0,615.0
706,0.8416657447814941,2.0,1.0,1.0,0.0,0.0,507.0,0.0,616.0
707,0.8416657447814941,3.0,1.0,1.0,0.0,0.0,506.0,0.0,615.0
708,0.8416657447814941,4.0,1.0,1.0,0.0,0.0,507.0,0.0,616.0
709,0.8416657447814941,5.0,1.0,1.0,0.0,0.0,507.0,0.0,616.0
710,0.8416657447814941,6.0,1.0,1.0,0.0,0.0,509.0,0.0,615.0
711,0.8416657447814941,7.0,1.0,1.0,0.0,0.0,507.0,0.0,617.0
712,0.8416657447814941,8.0,1.0,1.0,0.0,0.0,504.0,0.0,620.0
713,0.8416657447814941,9.0,1.0,1.0,0.0,0.0,504.0,0.0,616.0
714,0.8416657447814941,10.0,1.0,1.0,0.0,0.0,505.0,0.0,615.0
715,0.8416657447814941,11.0,1.0,1.0,0.0,0.0,505.0,0.0,615.0
716,0.8416657447814941,12.0,1.0,1.0,0.0,0.0,507.0,0.0,617.0
717,0.8416657447814941,13.0,1.0,1.0,0.0,0.0,506.0,0.0,616.0
718,0.8416657447814941,14.0,1.0,1.0,0.0,0.0,507.0,0.0,616.0
719,0.8416657447814941,15.0,1.0,1.0,0.0,0.0,505.0,0.0,616.0
720,0.8416657447814941,0.0,1.0,1.0,0.0,0.0,507.0,0.0,620.0
721,0.8416657447814941,1.0,1.0,1.0,0.0,0.0,506.0,0.0,616.0
722,0.8416657447814941,2.0,1.0,1.0,0.0,0.0,507.0,0.0,615.0
723,0.8416657447814941,3.0,1.0,1.0,0.0,0.0,508.0,0.0,615.0
724,0.8416657447814941,4.0,1.0,1.0,0.0,0.0,507.0,0.0,616.0
725,0.8416657447814941,5.0,1.0,1.0,0.0,0.0,508.0,0.0,616.0
726,0.8416657447814941,6.0,1.0,1.0,0.0,0.0,511.0,0.0,616.0
727,0.8416657447814941,7.0,1.0,1.0,0.0,0.0,509.0,0.0,615.0
728,0.8416657447814941,8.0,1.0,1.0,0.0,0.0,508.0,0.0,620.0
729,0.8416657447814941,9.0,1.0,1.0,0.0,0.0,506.0,0.0,615.0
730,0.8416657447814941,10.0,1.0,1.0,0.0,0.0,508.0,0.0,615.0
731,0.8416657447814941,11.0,1.0,1.0,0.0,0.0,508.0,0.0,614.0
732,0.8416657447814941,12.0,1.0,1.0,0.0,0.0,507.0,0.0,615.0
733,0.8416657447814941,13.0,1.0,1.0,0.0,0.0,508.0,0.0,616.0
734,0.8416657447814941,14.0,1.0,1.0,0.0,0.0,507.0,0.0,616.0
735,0.8416657447814941,15.0,1.0,1.0,0.0,0.0,507.0,0.0,615.0
736,0.8416657447814941,0.0,1.0,1.0,0.0,0.0,504.0,0.0,620.0
737,0.8416657447814941,1.0,1.0,1.0,0.0,0.0,503.0,0.0,615.0
738,0.8416657447814941,2.0,1.0,1.0,0.0,0.0,504.0,0.0,616.0
739,0.8416657447814941,3.0,1.0,1.0,0.0,0.0,503.0,0.0,616.0
740,0.8416657447814941,4.0,1.0,1.0,0.0,0.0,504.0,0.0,616.0
741,0.8416657447814941,5.0,1.0,1.0,0.0,0.0,504.0,0.0,617.0
742,0.8416657447814941,6.0,1.0,1.0,0.0,0.0,504.0,0.0,615.0
743,0.8416657447814941,7.0,1.0,1.0,0.0,0.0,506.0,0.0,616.0
744,0.8416657447814941,8.0,1.0,1.0,0.0,0.0,505.0,0.0,620.0
745,0.8416657447814941,9.0,1.0,1.0,0.0,0.0,503.0,0.0,615.0
746,0.8416657447814941,10.0,1.0,1.0,0.0,0.0,504.0,0.0,616.0
747,0.8416657447814941,11.0,1.0,1.0,0.0,0.0,505.0,0.0,615.0
748,0.8416657447814941,12.0,1.0,1.0,0.0,0.0,504.0,0.0,617.0
749,0.8416657447814941,13.0,1.0,1.0,0.0,0.0,504.0,0.0,615.0
750,0.8416657447814941,14.0,1.0,1.0,0.0,0.0,504.0,0.0,615.0
751,0.8416657447814941,15.0,1.0,1.0,0.0,0.0,508.0,0.0,616.0
752,0.8416657447814941,0.0,1.0,1.0,0.0,0.0,507.0,0.0,620.0
753,0.8416657447814941,1.0,1.0,1.0,0.0,0.0,508.0,0.0,617.0
754,0.8416657447814941,2.0,1.0,1.0,0.0,0.0,507.0,0.0,615.0
755,0.8416657447814941,3.0,1.0,1.0,0.0,0.0,507.0,0.0,615.0
756,0.8416657447814941,4.0,1.0,1.0,0.0,0.0,507.0,0.0,617.0
757,0.8416657447814941,5.0,1.0,1.0,0.0,0.0,507.0,0.0,615.0
758,0.8416657447814941,6.0,1.0,1.0,0.0,0.0,509.0,0.0,616.0
759,0.8416657447814941,7.0,1.0,1.0,0.0,0.0,509.0,0.0,615.0
760,0.8416657447814941,8.0,1.0,1.0,0.0,0.0,507.0,0.0,619.0
761,0.8416657447814941,9.0,1.0,1.0,0.0,0.0,507.0,0.0,616.0
762,0.8416657447814941,10.0,1.0,1.0,0.0,0.0,508.0,0.0,615.0
763,0.8416657447814941,11.0,1.0,1.0,0.0,0.0,508.0,0.0,615.0
764,0.8416657447814941,12.0,1.0,1.0,0.0,0.0,505.0,0.0,616.0
765,0.8416657447814941,13.0,1.0,1.0,0.0,0.0,506.0,0.0,615.0
766,0.8416657447814941,14.0,1.0,1.0,0.0,0.0,505.0,0.0,616.0
767,0.8416657447814941,15.0,1.0,1.0,0.0,0.0,508.0,0.0,616.0
768,0.8416657447814941,0.0,1.0,1.0,0.0,0.0,507.0,0.0,619.0
769,0.8416657447814941,1.0,1.0,1.0,0.0,0.0,508.0,0.0,616.0
770,0.8416657447814941,2.0,1.0,1.0,0.0,0.0,508.0,0.0,615.0
771,0.8416657447814941,3.0,1.0,1.0,0.0,0.0,508.0,0.0,616.0
772,0.8416657447814941,4.0,1.0,1.0,0.0,0.0,508.0,0.0,616.0
773,0.8416657447814941,5.0,1.0,1.0,0.0,0.0,509.0,0.0,615.0
774,0.8416657447814941,6.0,1.0,1.0,0.0,0.0,508.0,0.0,615.0
775,0.8416657447814941,7.0,1.0,1.0,0.0,0.0,508.0,0.0,615.0
776,0.8416657447814941,8.0,1.0,1.0,0.0,0.0,505.0,0.0,620.0
777,0.8416657447814941,9.0,1.0,1.0,0.0,0.0,506.0,0.0,616.0
778,0.8416657447814941,10.0,1.0,1.0,0.0,0.0,504.0,0.0,615.0
779,0.8416657447814941,11.0,1.0,1.0,0.0,0.0,507.0,0.0,616.0
780,0.8416657447814941,12.0,1.0,1.0,0.0,0.0,508.0,0.0,615.0
781,0.8416657447814941,13.0,1.0,1.0,0.0,0.0,508.0,0.0,616.0
782,0.8416657447814941,14.0,1.0,1.0,0.0,0.0,510.0,0.0,616.0
783,0.8416657447814941,15.0,1.0,1.0,0.0,0.0,511.0,0.0,616.0
784,0.8416657447814941,0.0,1.0,1.0,0.0,0.0,510.0,0.0,620.0
785,0.8416657447814941,1.0,1.0,1.0,0.0,0.0,509.0,0.0,615.0
786,0.8416657447814941,2.0,1.0,1.0,0.0,0.0,509.0,0.0,617.0
787,0.8416657447814941,3.0,1.0,1.0,0.0,0.0,509.0,0.0,616.0
788,0.8416657447814941,4.0,1.0,1.0,0.0,0.0,510.0,0.0,616.0
789,0.8416657447814941,5.0,1.0,1.0,0.0,0.0,509.0,0.0,616.0
790,0.8416657447814941,6.0,1.0,1.0,0.0,0.0,509.0,0.0,615.0
791,0.8416657447814941,7.0,1.0,1.0,0.0,0.0,511.0,0.0,616.0
792,0.8416657447814941,8.0,1.0,1.0,0.0,0.0,507.0,0.0,620.0
793,0.8416657447814941,9.0,1.0,1.0,0.0,0.0,507.0,0.0,615.0
794,0.8416657447814941,10.0,1.0,1.0,0.0,0.0,508.0,0.0,615.0
795,0.8416657447814941,11.0,1.0,1.0,0.0,0.0,508.0,0.0,613.0
796,0.8416657447814941,12.0,1.0,1.0,0.0,0.0,506.0,0.0,616.0
797,0.8416657447814941,13.0,1.0,1.0,0.0,0.0,505.0,0.0,616.0
798,0.8416657447814941,14.0,1.0,1.0,0.0,0.0,504.0,0.0,616.0
799,0.8416657447814941,15.0,1.0,1.0,0.0,0.0,504.0,0.0,616.0
800,0.9251866340637207,0.0,1.0,1.0,0.0,0.0,503.0,0.0,619.0
801,0.9251866340637207,1.0,1.0,1.0,0.0,0.0,502.0,0.0,616.0
802,0.9251866340637207,2.0,1.0,1.0,0.0,0.0,504.0,0.0,615.0
803,0.9251866340637207,3.0,1.0,1.0,0.0,0.0,504.0,0.0,616.0
804,0.9251866340637207,4.0,1.0,1.0,0.0,0.0,503.0,0.0,616.0
805,0.9251866340637207,5.0,1.0,1.0,0.0,0.0,504.0,0.0,615.0
806,0.9251866340637207,6.0,1.0,1.0,0.0,0.0,506.0,0.0,616.0
807,0.9251866340637207,7.0,1.0,1.0,0.0,0.0,505.0,0.0,616.0
808,0.9251866340637207,8.0,1.0,1.0,0.0,0.0,505.0,0.0,620.0
809,0.9251866340637207,9.0,1.0,1.0,0.0,0.0,507.0,0.0,615.0
810,0.9251866340637207,10.0,1.0,1.0,0.0,0.0,507.0,0.0,615.0
811,0.9251866340637207,11.0,1.0,1.0,0.0,0.0,505.0,0.0,616.0
812,0.9251866340637207,12.0,1.0,1.0,0.0,0.0,505.0,0.0,615.0
813,0.9251866340637207,13.0,1.0,1.0,0.0,0.0,505.0,0.0,615.0
814,0.9251866340637207,14.0,1.0,1.0,0.0,0.0,506.0,0.0,615.0
815,0.9251866340637207,15.0,1.0,1.0,0.0,0.0,507.0,0.0,614.0
816,0.9251866340637207,0.0,1.0,1.0,0.0,0.0,506.0,0.0,620.0
817,0.9251866340637207,1.0,1.0,1.0,0.0,0.0,504.0,0.0,616.0
818,0.9251866340637207,2.0,1.0,1.0,0.0,0.0,503.0,0.0,616.0
819,0.9251866340637207,3.0,1.0,1.0,0.0,0.0,504.0,0.0,615.0
820,0.9251866340637207,4.0,1.0,1.0,0.0,0.0,504.0,0.0,615.0
821,0.9251866340637207,5.0,1.0,1.0,0.0,0.0,505.0,0.0,616.0
822,0.9251866340637207,6.0,1.0,1.0,0.0,0.0,506.0,0.0,615.0
823,0.9251866340637207,7.0,1.0,1.0,0.0,0.0,505.0,0.0,616.0
824,0.9251866340637207,8.0,1.0,1.0,0.0,0.0,506.0,0.0,620.0
825,0.9251866340637207,9.0,1.0,1.0,0.0,0.0,506.0,0.0,615.0
826,0.9251866340637207,10.0,1.0,1.0,0.0,0.0,507.0,0.0,616.0
827,0.9251866340637207,11.0,1.0,1.0,0.0,0.0,508.0,0.0,615.0
828,0.9251866340637207,12.0,1.0,1.0,0.0,0.0,507.0,0.0,615.0
829,0.9251866340637207,13.0,1.0,1.0,0.0,0.0,506.0,0.0,615.0
830,0.9251866340637207,14.0,1.0,1.0,0.0,0.0,505.0,0.0,615.0
831,0.9251866340637207,15.0,1.0,1.0,0.0,0.0,508.0,0.0,616.0
832,0.9251866340637207,0.0,1.0,1.0,0.0,0.0,509.0,0.0,620.0
833,0.9251866340637207,1.0,1.0,1.0,0.0,0.0,508.0,0.0,615.0
834,0.9251866340637207,2.0,1.0,1.0,0.0,0.0,508.0,0.0,615.0
835,0.9251866340637207,3.0,1.0,1.0,0.0,0.0,507.0,0.0,615.0
836,0.9251866340637207,4.0,1.0,1.0,0.0,0.0,505.0,0.0,615.0
837,0.9251866340637207,5.0,1.0,1.0,0.0,0.0,503.0,0.0,615.0
838,0.9251866340637207,6.0,1.0,1.0,0.0,0.0,504.0,0.0,615.0
839,0.9251866340637207,7.0,1.0,1.0,0.0,0.0,503.0,0.0,615.0
840,0.9251866340637207,8.0,1.0,1.0,0.0,0.0,504.0,0.0,620.0
841,0.9251866340637207,9.0,1.0,1.0,0.0,0.0,507.0,0.0,616.0
842,0.9251866340637207,10.0,1.0,1.0,0.0,0.0,507.0,0.0,615.0
843,0.9251866340637207,11.0,1.0,1.0,0.0,0.0,509.0,0.0,616.0
844,0.9251866340637207,12.0,1.0,1.0,0.0,0.0,509.0,0.0,615.0
845,0.9251866340637207,13.0,1.0,1.0,0.0,0.0,508.0,0.0,615.0
846,0.9251866340637207,14.0,1.0,1.0,0.0,0.0,509.0,0.0,615.0
847,0.9251866340637207,15.0,1.0,1.0,0.0,0.0,507.0,0.0,614.0
848,0.9251866340637207,0.0,1.0,1.0,0.0,0.0,507.0,0.0,620.0
849,0.9251866340637207,1.0,1.0,1.0,0.0,0.0,507.0,0.0,615.0
850,0.9251866340637207,2.0,1.0,1.0,0.0,0.0,507.0,0.0,615.0
851,0.9251866340637207,3.0,1.0,1.0,0.0,0.0,507.0,0.0,616.0
852,0.9251866340637207,4.0,1.0,1.0,0.0,0.0,505.0,0.0,616.0
853,0.9251866340637207,5.0,1.0,1.0,0.0,0.0,506.0,0.0,617.0
854,0.9251866340637207,6.0,1.0,1.0,0.0,0.0,508.0,0.0,615.0
855,0.9251866340637207,7.0,1.0,1.0,0.0,0.0,508.0,0.0,615.0
856,0.9251866340637207,8.0,1.0,1.0,0.0,0.0,505.0,0.0,620.0
857,0.9251866340637207,9.0,1.0,1.0,0.0,0.0,503.0,0.0,615.0
858,0.9251866340637207,10.0,1.0,1.0,0.0,0.0,503.0,0.0,616.0
859,0.9251866340637207,11.0,1.0,1.0,0.0,0.0,503.0,0.0,616.0
860,0.9251866340637207,12.0,1.0,1.0,0.0,0.0,504.0,0.0,615.0
861,0.9251866340637207,13.0,1.0,1.0,0.0,0.0,504.0,0.0,616.0
862,0.9251866340637207,14.0,1.0,1.0,0.0,0.0,504.0,0.0,616.0
863,0.9251866340637207,15.0,1.0,1.0,0.0,0.0,503.0,0.0,616.0
864,0.9251866340637207,0.0,1.0,1.0,0.0,0.0,504.0,0.0,620.0
865,0.9251866340637207,1.0,1.0,1.0,0.0,0.0,504.0,0.0,615.0
866,0.9251866340637207,2.0,1.0,1.0,0.0,0.0,506.0,0.0,616.0
867,0.9251866340637207,3.0,1.0,1.0,0.0,0.0,506.0,0.0,615.0
868,0.9251866340637207,4.0,1.0,1.0,0.0,0.0,505.0,0.0,617.0
869,0.9251866340637207,5.0,1.0,1.0,0.0,0.0,505.0,0.0,616.0
870,0.9251866340637207,6.0,1.0,1.0,0.0,0.0,508.0,0.0,616.0
871,0.9251866340637207,7.0,1.0,1.0,0.0,0.0,510.0,0.0,616.0
872,0.9251866340637207,8.0,1.0,1.0,0.0,0.0,510.0,0.0,620.0
873,0.9251866340637207,9.0,1.0,1.0,0.0,0.0,511.0,0.0,616.0
874,0.9251866340637207,10.0,1.0,1.0,0.0,0.0,510.0,0.0,616.0
875,0.9251866340637207,11.0,1.0,1.0,0.0,0.0,509.0,0.0,615.0
876,0.9251866340637207,12.0,1.0,1.0,0.0,0.0,509.0,0.0,617.0
877,0.9251866340637207,13.0,1.0,1.0,0.0,0.0,506.0,0.0,615.0
878,0.9251866340637207,14.0,1.0,1.0,0.0,0.0,505.0,0.0,617.0
879,0.9251866340637207,15.0,1.0,1.0,0.0,0.0,508.0,0.0,616.0
880,0.9251866340637207,0.0,1.0,1.0,0.0,0.0,508.0,0.0,620.0
881,0.9251866340637207,1.0,1.0,1.0,0.0,0.0,508.0,0.0,616.0
882,0.9251866340637207,2.0,1.0,1.0,0.0,0.0,507.0,0.0,615.0
883,0.9251866340637207,3.0,1.0,1.0,0.0,0.0,508.0,0.0,616.0
884,0.9251866340637207,4.0,1.0,1.0,0.0,0.0,508.0,0.0,616.0
885,0.9251866340637207,5.0,1.0,1.0,0.0,0.0,508.0,0.0,615.0
886,0.9251866340637207,6.0,1.0,1.0,0.0,0.0,508.0,0.0,616.0
887,0.9251866340637207,7.0,1.0,1.0,0.0,0.0,508.0,0.0,615.0
888,0.9251866340637207,8.0,1.0,1.0,0.0,0.0,507.0,0.0,620.0
889,0.9251866340637207,9.0,1.0,1.0,0.0,0.0,506.0,0.0,615.0
890,0.9251866340637207,10.0,1.0,1.0,0.0,0.0,505.0,0.0,615.0
891,0.9251866340637207,11.0,1.0,1.0,0.0,0.0,507.0,0.0,615.0
892,0.9251866340637207,12.0,1.0,1.0,0.0,0.0,506.0,0.0,616.0
893,0.9251866340637207,13.0,1.0,1.0,0.0,0.0,506.0,0.0,617.0
894,0.9251866340637207,14.0,1.0,1.0,0.0,0.0,508.0,0.0,616.0
895,0.9251866340637207,15.0,1.0,1.0,0.0,0.0,507.0,0.0,615.0
896,0.9251866340637207,0.0,1.0,1.0,0.0,0.0,506.0,0.0,620.0
897,0.9251866340637207,1.0,1.0,1.0,0.0,0.0,504.0,0.0,615.0
898,0.9251866340637207,2.0,1.0,1.0,0.0,0.0,505.0,0.0,616.0
899,0.9251866340637207,3.0,1.0,1.0,0.0,0.0,505.0,0.0,612.0
900,1.0095429420471191,4.0,1.0,1.0,0.0,0.0,506.0,0.0,615.0
901,1.0095429420471191,5.0,1.0,1.0,0.0,0.0,507.0,0.0,615.0
902,1.0095429420471191,6.0,1.0,1.0,0.0,0.0,504.0,0.0,615.0
903,1.0095429420471191,7.0,1.0,1.0,0.0,0.0,505.0,0.0,616.0
904,1.0095429420471191,8.0,1.0,1.0,0.0,0.0,505.0,0.0,620.0
905,1.0095429420471191,9.0,1.0,1.0,0.0,0.0,506.0,0.0,615.0
906,1.0095429420471191,10.0,1.0,1.0,0.0,0.0,507.0,0.0,616.0
907,1.0095429420471191,11.0,1.0,1.0,0.0,0.0,507.0,0.0,615.0
908,1.0095429420471191,12.0,1.0,1.0,0.0,0.0,508.0,0.0,616.0
909,1.0095429420471191,13.0,1.0,1.0,0.0,0.0,509.0,0.0,616.0
910,1.0095429420471191,14.0,1.0,1.0,0.0,0.0,508.0,0.0,616.0
911,1.0095429420471191,15.0,1.0,1.0,0.0,0.0,507.0,0.0,617.0
912,1.0095429420471191,0.0,1.0,1.0,0.0,0.0,507.0,0.0,620.0
913,1.0095429420471191,1.0,1.0,1.0,0.0,0.0,510.0,0.0,616.0
914,1.0095429420471191,2.0,1.0,1.0,0.0,0.0,508.0,0.0,616.0
915,1.0095429420471191,3.0,1.0,1.0,0.0,0.0,508.0,0.0,614.0
916,1.0095429420471191,4.0,1.0,1.0,0.0,0.0,509.0,0.0,616.0
917,1.0095429420471191,5.0,1.0,1.0,0.0,0.0,506.0,0.0,615.0
918,1.0095429420471191,6.0,1.0,1.0,0.0,0.0,504.0,0.0,616.0
919,1.0095429420471191,7.0,1.0,1.0,0.0,0.0,504.0,0.0,616.0
920,1.0095429420471191,8.0,1.0,1.0,0.0,0.0,503.0,0.0,619.0
921,1.0095429420471191,9.0,1.0,1.0,0.0,0.0,504.0,0.0,616.0
922,1.0095429420471191,10.0,1.0,1.0,0.0,0.0,503.0,0.0,616.0
923,1.0095429420471191,11.0,1.0,1.0,0.0,0.0,505.0,0.0,616.0
924,1.0095429420471191,12.0,1.0,1.0,0.0,0.0,505.0,0.0,616.0
925,1.0095429420471191,13.0,1.0,1.0,0.0,0.0,505.0,0.0,616.0
926,1.0095429420471191,14.0,1.0,1.0,0.0,0.0,505.0,0.0,616.0
927,1.0095429420471191,15.0,1.0,1.0,0.0,0.0,505.0,0.0,615.0
928,1.0095429420471191,0.0,1.0,1.0,0.0,0.0,506.0,0.0,620.0
929,1.0095429420471191,1.0,1.0,1.0,0.0,0.0,505.0,0.0,616.0
930,1.0095429420471191,2.0,1.0,1.0,0.0,0.0,506.0,0.0,615.0
931,1.0095429420471191,3.0,1.0,1.0,0.0,0.0,506.0,0.0,617.0
932,1.0095429420471191,4.0,1.0,1.0,0.0,0.0,505.0,0.0,615.0
933,1.0095429420471191,5.0,1.0,1.0,0.0,0.0,508.0,0.0,616.0
934,1.0095429420471191,6.0,1.0,1.0,0.0,0.0,509.0,0.0,615.0
935,1.0095429420471191,7.0,1.0,1.0,0.0,0.0,509.0,0.0,615.0
936,1.0095429420471191,8.0,1.0,1.0,0.0,0.0,509.0,0.0,620.0
937,1.0095429420471191,9.0,1.0,1.0,0.0,0.0,508.0,0.0,616.0
938,1.0095429420471191,10.0,1.0,1.0,0.0,0.0,507.0,0.0,616.0
939,1.0095429420471191,11.0,1.0,1.0,0.0,0.0,507.0,0.0,616.0
940,1.0095429420471191,12.0,1.0,1.0,0.0,0.0,507.0,0.0,615.0
941,1.0095429420471191,13.0,1.0,1.0,0.0,0.0,508.0,0.0,616.0
942,1.0095429420471191,14.0,1.0,1.0,0.0,0.0,505.0,0.0,615.0
943,1.0095429420471191,15.0,1.0,1.0,0.0,0.0,508.0,0.0,616.0
944,1.0095429420471191,0.0,1.0,1.0,0.0,0.0,507.0,0.0,620.0
945,1.0095429420471191,1.0,1.0,1.0,0.0,0.0,505.0,0.0,615.0
946,1.0095429420471191,2.0,1.0,1.0,0.0,0.0,505.0,0.0,616.0
947,1.0095429420471191,3.0,1.0,1.0,0.0,0.0,505.0,0.0,615.0
948,1.0095429420471191,4.0,1.0,1.0,0.0,0.0,504.0,0.0,615.0
949,1.0095429420471191,5.0,1.0,1.0,0.0,0.0,504.0,0.0,615.0
950,1.0095429420471191,6.0,1.0,1.0,0.0,0.0,506.0,0.0,615.0
951,1.0095429420471191,7.0,1.0,1.0,0.0,0.0,507.0,0.0,616.0
952,1.0095429420471191,8.0,1.0,1.0,0.0,0.0,507.0,0.0,620.0
953,1.0095429420471191,9.0,1.0,1.0,0.0,0.0,505.0,0.0,616.0
954,1.0095429420471191,10.0,1.0,1.0,0.0,0.0,504.0,0.0,616.0
955,1.0095429420471191,11.0,1.0,1.0,0.0,0.0,503.0,0.0,615.0
956,1.0095429420471191,12.0,1.0,1.0,0.0,0.0,504.0,0.0,616.0
957,1.0095429420471191,13.0,1.0,1.0,0.0,0.0,504.0,0.0,615.0
958,1.0095429420471191,14.0,1.0,1.0,0.0,0.0,500.0,0.0,617.0
959,1.0095429420471191,15.0,1.0,1.0,0.0,0.0,502.0,0.0,615.0
960,1.0095429420471191,0.0,1.0,1.0,0.0,0.0,502.0,0.0,620.0
961,1.0095429420471191,1.0,1.0,1.0,0.0,0.0,505.0,0.0,616.0
962,1.0095429420471191,2.0,1.0,1.0,0.0,0.0,504.0,0.0,616.0
963,1.0095429420471191,3.0,1.0,1.0,0.0,0.0,504.0,0.0,616.0
964,1.0095429420471191,4.0,1.0,1.0,0.0,0.0,504.0,0.0,616.0
965,1.0095429420471191,5.0,1.0,1.0,0.0,0.0,503.0,0.0,616.0
966,1.0095429420471191,6.0,1.0,1.0,0.0,0.0,504.0,0.0,616.0
967,1.0095429420471191,7.0,1.0,1.0,0.0,0.0,507.0,0.0,615.0
968,1.0095429420471191,8.0,1.0,1.0,0.0,0.0,508.0,0.0,621.0
969,1.0095429420471191,9.0,1.0,1.0,0.0,0.0,508.0,0.0,615.0
970,1.0095429420471191,10.0,1.0,1.0,0.0,0.0,508.0,0.0,615.0
971,1.0095429420471191,11.0,1.0,1.0,0.0,0.0,508.0,0.0,616.0
972,1.0095429420471191,12.0,1.0,1.0,0.0,0.0,507.0,0.0,615.0
973,1.0095429420471191,13.0,1.0,1.0,0.0,0.0,508.0,0.0,617.0
974,1.0095429420471191,14.0,1.0,1.0,0.0,0.0,508.0,0.0,616.0
975,1.0095429420471191,15.0,1.0,1.0,0.0,0.0,508.0,0.0,615.0
976,1.0095429420471191,0.0,1.0,1.0,0.0,0.0,508.0,0.0,620.0
977,1.0095429420471191,1.0,1.0,1.0,0.0,0.0,509.0,0.0,616.0
978,1.0095429420471191,2.0,1.0,1.0,0.0,0.0,507.0,0.0,616.0
979,1.0095429420471191,3.0,1.0,1.0,0.0,0.0,506.0,0.0,616.0
980,1.0095429420471191,4.0,1.0,1.0,0.0,0.0,505.0,0.0,615.0
981,1.0095429420471191,5.0,1.0,1.0,0.0,0.0,507.0,0.0,616.0
982,1.0095429420471191,6.0,1.0,1.0,0.0,0.0,509.0,0.0,615.0
983,1.0095429420471191,7.0,1.0,1.0,0.0,0.0,511.0,0.0,617.0
984,1.0095429420471191,8.0,1.0,1.0,0.0,0.0,511.0,0.0,620.0
985,1.0095429420471191,9.0,1.0,1.0,0.0,0.0,510.0,0.0,615.0
986,1.0095429420471191,10.0,1.0,1.0,0.0,0.0,510.0,0.0,616.0
987,1.0095429420471191,11.0,1.0,1.0,0.0,0.0,508.0,0.0,615.0
988,1.0095429420471191,12.0,1.0,1.0,0.0,0.0,508.0,0.0,616.0
989,1.0095429420471191,13.0,1.0,1.0,0.0,0.0,508.0,0.0,616.0
990,1.0095429420471191,14.0,1.0,1.0,0.0,0.0,505.0,0.0,616.0
991,1.0095429420471191,15.0,1.0,1.0,0.0,0.0,506.0,0.0,617.0
992,1.0095429420471191,0.0,1.0,1.0,0.0,0.0,504.0,0.0,620.0
993,1.0095429420471191,1.0,1.0,1.0,0.0,0.0,504.0,0.0,617.0
994,1.0095429420471191,2.0,1.0,1.0,0.0,0.0,505.0,0.0,615.0
995,1.0095429420471191,3.0,1.0,1.0,0.0,0.0,506.0,0.0,615.0
996,1.0095429420471191,4.0,1.0,1.0,0.0,0.0,508.0,0.0,616.0
997,1.0095429420471191,5.0,1.0,1.0,0.0,0.0,508.0,0.0,615.0
998,1.0095429420471191,6.0,1.0,1.0,0.0,0.0,505.0,0.0,616.0
999,1.0095429420471191,7.0,1.0,1.0,0.0,0.0,505.0,0.0,615.0
1000,1.1405587196350098,8.0,1.0,1.0,0.0,0.0,504.0,0.0,619.0
1001,1.1405587196350098,9.0,1.0,1.0,0.0,0.0,506.0,0.0,616.0
1002,1.1405587196350098,10.0,1.0,1.0,0.0,0.0,506.0,0.0,615.0
1003,1.1405587196350098,11.0,1.0,1.0,0.0,0.0,508.0,0.0,616.0
1004,1.1405587196350098,12.0,1.0,1.0,0.0,0.0,507.0,0.0,616.0
1005,1.1405587196350098,13.0,1.0,1.0,0.0,0.0,508.0,0.0,615.0
1006,1.1405587196350098,14.0,1.0,1.0,0.0,0.0,509.0,0.0,616.0
1007,1.1405587196350098,15.0,1.0,1.0,0.0,0.0,509.0,0.0,615.0
1008,1.1405587196350098,0.0,1.0,1.0,0.0,0.0,507.0,0.0,621.0
1009,1.1405587196350098,1.0,1.0,1.0,0.0,0.0,507.0,0.0,616.0
1010,1.1405587196350098,2.0,1.0,1.0,0.0,0.0,507.0,0.0,615.0
1011,1.1405587196350098,3.0,1.0,1.0,0.0,0.0,508.0,0.0,616.0
1012,1.1405587196350098,4.0,1.0,1.0,0.0,0.0,510.0,0.0,615.0
1013,1.1405587196350098,5.0,1.0,1.0,0.0,0.0,509.0,0.0,616.0
1014,1.1405587196350098,6.0,1.0,1.0,0.0,0.0,510.0,0.0,615.0
1015,1.1405587196350098,7.0,1.0,1.0,0.0,0.0,510.0,0.0,615.0
1016,1.1405587196350098,8.0,1.0,1.0,0.0,0.0,508.0,0.0,620.0
1017,1.1405587196350098,9.0,1.0,1.0,0.0,0.0,508.0,0.0,616.0
1018,1.1405587196350098,10.0,1.0,1.0,0.0,0.0,509.0,0.0,617.0
1019,1.1405587196350098,11.0,1.0,1.0,0.0,0.0,511.0,0.0,615.0
1020,1.1405587196350098,12.0,1.0,1.0,0.0,0.0,509.0,0.0,615.0
1021,1.1405587196350098,13.0,1.0,1.0,0.0,0.0,508.0,0.0,616.0
1022,1.1405587196350098,14.0,1.0,1.0,0.0,0.0,507.0,0.0,615.0
1023,1.1405587196350098,15.0,1.0,1.0,0.0,0.0,510.0,0.0,616.0
1024,1.1405587196350098,0.0,1.0,1.0,0.0,0.0,507.0,0.0,620.0
1025,1.1405587196350098,1.0,1.0,1.0,0.0,0.0,507.0,0.0,615.0
1026,1.1405587196350098,2.0,1.0,1.0,0.0,0.0,507.0,0.0,615.0
1027,1.1405587196350098,3.0,1.0,1.0,0.0,0.0,507.0,0.0,614.0
1028,1.1405587196350098,4.0,1.0,1.0,0.0,0.0,508.0,0.0,616.0
1029,1.1405587196350098,5.0,1.0,1.0,0.0,0.0,509.0,0.0,615.0
1030,1.1405587196350098,6.0,1.0,1.0,0.0,0.0,509.0,0.0,616.0
1031,1.1405587196350098,7.0,1.0,1.0,0.0,0.0,509.0,0.0,616.0
1032,1.1405587196350098,8.0,1.0,1.0,0.0,0.0,509.0,0.0,619.0
1033,1.1405587196350098,9.0,1.0,1.0,0.0,0.0,509.0,0.0,617.0
1034,1.1405587196350098,10.0,1.0,1.0,0.0,0.0,508.0,0.0,616.0
1035,1.1405587196350098,11.0,1.0,1.0,0.0,0.0,507.0,0.0,615.0
1036,1.1405587196350098,12.0,1.0,1.0,0.0,0.0,507.0,0.0,616.0
1037,1.1405587196350098,13.0,1.0,1.0,0.0,0.0,506.0,0.0,614.0
1038,1.1405587196350098,14.0,1.0,1.0,0.0,0.0,506.0,0.0,615.0
1039,1.1405587196350098,15.0,1.0,1.0,0.0,0.0,504.0,0.0,615.0
1040,1.1405587196350098,0.0,1.0,1.0,0.0,0.0,505.0,0.0,620.0
1041,1.1405587196350098,1.0,1.0,1.0,0.0,0.0,504.0,0.0,616.0
1042,1.1405587196350098,2.0,1.0,1.0,0.0,0.0,504.0,0.0,616.0
1043,1.1405587196350098,3.0,1.0,1.0,0.0,0.0,504.0,0.0,616.0
1044,1.1405587196350098,4.0,1.0,1.0,0.0,0.0,506.0,0.0,616.0
1045,1.1405587196350098,5.0,1.0,1.0,0.0,0.0,505.0,0.0,615.0
1046,1.1405587196350098,6.0,1.0,1.0,0.0,0.0,505.0,0.0,616.0
1047,1.1405587196350098,7.0,1.0,1.0,0.0,0.0,505.0,0.0,615.0
1048,1.1405587196350098,8.0,1.0,1.0,0.0,0.0,506.0,0.0,619.0
1049,1.1405587196350098,9.0,1.0,1.0,0.0,0.0,507.0,0.0,615.0
1050,1.1405587196350098,10.0,1.0,1.0,0.0,0.0,505.0,0.0,615.0
1051,1.1405587196350098,11.0,1.0,1.0,0.0,0.0,505.0,0.0,616.0
1052,1.1405587196350098,12.0,1.0,1.0,0.0,0.0,505.0,0.0,615.0
1053,1.1405587196350098,13.0,1.0,1.0,0.0,0.0,506.0,0.0,616.0
1054,1.1405587196350098,14.0,1.0,1.0,0.0,0.0,507.0,0.0,615.0
1055,1.1405587196350098,15.0,1.0,1.0,0.0,0.0,507.0,0.0,614.0
1056,1.1405587196350098,0.0,1.0,1.0,0.0,0.0,506.0,0.0,619.0
1057,1.1405587196350098,1.0,1.0,1.0,0.0,0.0,506.0,0.0,615.0
1058,1.1405587196350098,2.0,1.0,1.0,0.0,0.0,507.0,0.0,616.0
1059,1.1405587196350098,3.0,1.0,1.0,0.0,0.0,508.0,0.0,614.0
1060,1.1405587196350098,4.0,1.0,1.0,0.0,0.0,505.0,0.0,615.0
1061,1.1405587196350098,5.0,1.0,1.0,0.0,0.0,506.0,0.0,616.0
1062,1.1405587196350098,6.0,1.0,1.0,0.0,0.0,505.0,0.0,615.0
1063,1.1405587196350098,7.0,1.0,1.0,0.0,0.0,504.0,0.0,615.0
1064,1.1405587196350098,8.0,1.0,1.0,0.0,0.0,503.0,0.0,619.0
1065,1.1405587196350098,9.0,1.0,1.0,0.0,0.0,504.0,0.0,615.0
1066,1.1405587196350098,10.0,1.0,1.0,0.0,0.0,505.0,0.0,615.0
1067,1.1405587196350098,11.0,1.0,1.0,0.0,0.0,505.0,0.0,614.0
1068,1.1405587196350098,12.0,1.0,1.0,0.0,0.0,507.0,0.0,616.0
1069,1.1405587196350098,13.0,1.0,1.0,0.0,0.0,507.0,0.0,616.0
1070,1.1405587196350098,14.0,1.0,1.0,0.0,0.0,507.0,0.0,615.0
1071,1.1405587196350098,15.0,1.0,1.0,0.0,0.0,508.0,0.0,616.0
1072,1.1405587196350098,0.0,1.0,1.0,0.0,0.0,507.0,0.0,620.0
1073,1.1405587196350098,1.0,1.0,1.0,0.0,0.0,509.0,0.0,617.0
1074,1.1405587196350098,2.0,1.0,1.0,0.0,0.0,511.0,0.0,616.0
1075,1.1405587196350098,3.0,1.0,1.0,0.0,0.0,510.0,0.0,615.0
1076,1.1405587196350098,4.0,1.0,1.0,0.0,0.0,509.0,0.0,616.0
1077,1.1405587196350098,5.0,1.0,1.0,0.0,0.0,509.0,0.0,615.0
1078,1.1405587196350098,6.0,1.0,1.0,0.0,0.0,511.0,0.0,615.0
1079,1.1405587196350098,7.0,1.0,1.0,0.0,0.0,509.0,0.0,616.0
1080,1.1405587196350098,8.0,1.0,1.0,0.0,0.0,508.0,0.0,620.0
1081,1.1405587196350098,9.0,1.0,1.0,0.0,0.0,508.0,0.0,616.0
1082,1.1405587196350098,10.0,1.0,1.0,0.0,0.0,505.0,0.0,615.0
1083,1.1405587196350098,11.0,1.0,1.0,0.0,0.0,507.0,0.0,616.0
1084,1.1405587196350098,12.0,1.0,1.0,0.0,0.0,507.0,0.0,616.0
1085,1.1405587196350098,13.0,1.0,1.0,0.0,0.0,506.0,0.0,615.0
1086,1.1405587196350098,14.0,1.0,1.0,0.0,0.0,507.0,0.0,616.0
1087,1.1405587196350098,15.0,1.0,1.0,0.0,0.0,507.0,0.0,616.0
1088,1.1405587196350098,0.0,1.0,1.0,0.0,0.0,507.0,0.0,619.0
1089,1.1405587196350098,1.0,1.0,1.0,0.0,0.0,506.0,0.0,615.0
1090,1.1405587196350098,2.0,1.0,1.0,0.0,0.0,507.0,0.0,615.0
1091,1.1405587196350098,3.0,1.0,1.0,0.0,0.0,507.0,0.0,615.0
1092,1.1405587196350098,4.0,1.0,1.0,0.0,0.0,505.0,0.0,615.0
1093,1.1405587196350098,5.0,1.0,1.0,0.0,0.0,505.0,0.0,615.0
1094,1.1405587196350098,6.0,1.0,1.0,0.0,0.0,506.0,0.0,615.0
1095,1.1405587196350098,7.0,1.0,1.0,0.0,0.0,507.0,0.0,615.0
1096,1.1405587196350098,8.0,1.0,1.0,0.0,0.0,505.0,0.0,620.0
1097,1.1405587196350098,9.0,1.0,1.0,0.0,0.0,504.0,0.0,616.0
1098,1.1405587196350098,10.0,1.0,1.0,0.0,0.0,503.0,0.0,615.0
1099,1.1405587196350098,11.0,1.0,1.0,0.0,0.0,504.0,0.0,616.0
1100,1.2092738151550293,12.0,1.0,1.0,0.0,0.0,504.0,0.0,615.0
1101,1.2092738151550293,13.0,1.0,1.0,0.0,0.0,505.0,0.0,616.0
1102,1.2092738151550293,14.0,1.0,1.0,0.0,0.0,505.0,0.0,616.0
1103,1.2092738151550293,15.0,1.0,1.0,0.0,0.0,509.0,0.0,615.0
1104,1.2092738151550293,0.0,1.0,1.0,0.0,0.0,508.0,0.0,620.0
1105,1.2092738151550293,1.0,1.0,1.0,0.0,0.0,507.0,0.0,615.0
1106,1.2092738151550293,2.0,1.0,1.0,0.0,0.0,506.0,0.0,616.0
1107,1.2092738151550293,3.0,1.0,1.0,0.0,0.0,506.0,0.0,614.0
1108,1.2092738151550293,4.0,1.0,1.0,0.0,0.0,504.0,0.0,616.0
1109,1.2092738151550293,5.0,1.0,1.0,0.0,0.0,503.0,0.0,616.0
1110,1.2092738151550293,6.0,1.0,1.0,0.0,0.0,505.0,0.0,615.0
1111,1.2092738151550293,7.0,1.0,1.0,0.0,0.0,505.0,0.0,616.0
1112,1.2092738151550293,8.0,1.0,1.0,0.0,0.0,506.0,0.0,620.0
1113,1.2092738151550293,9.0,1.0,1.0,0.0,0.0,507.0,0.0,616.0
1114,1.2092738151550293,10.0,1.0,1.0,0.0,0.0,508.0,0.0,615.0
1115,1.2092738151550293,11.0,1.0,1.0,0.0,0.0,507.0,0.0,615.0
1116,1.2092738151550293,12.0,1.0,1.0,0.0,0.0,508.0,0.0,615.0
1117,1.2092738151550293,13.0,1.0,1.0,0.0,0.0,508.0,0.0,616.0
1118,1.2092738151550293,14.0,1.0,1.0,0.0,0.0,507.0,0.0,615.0
1119,1.2092738151550293,15.0,1.0,1.0,0.0,0.0,508.0,0.0,616.0
1120,1.2092738151550293,0.0,1.0,1.0,0.0,0.0,509.0,0.0,620.0
1121,1.2092738151550293,1.0,1.0,1.0,0.0,0.0,509.0,0.0,616.0
1122,1.2092738151550293,2.0,1.0,1.0,0.0,0.0,510.0,0.0,615.0
1123,1.2092738151550293,3.0,1.0,1.0,0.0,0.0,510.0,0.0,617.0
1124,1.2092738151550293,4.0,1.0,1.0,0.0,0.0,508.0,0.0,616.0
1125,1.2092738151550293,5.0,1.0,1.0,0.0,0.0,508.0,0.0,615.0
1126,1.2092738151550293,6.0,1.0,1.0,0.0,0.0,507.0,0.0,615.0
1127,1.2092738151550293,7.0,1.0,1.0,0.0,0.0,510.0,0.0,615.0
1128,1.2092738151550293,8.0,1.0,1.0,0.0,0.0,509.0,0.0,620.0
1129,1.2092738151550293,9.0,1.0,1.0,0.0,0.0,508.0,0.0,616.0
1130,1.2092738151550293,10.0,1.0,1.0,0.0,0.0,507.0,0.0,615.0
1131,1.2092738151550293,11.0,1.0,1.0,0.0,0.0,507.0,0.0,616.0
1132,1.2092738151550293,12.0,1.0,1.0,0.0,0.0,507.0,0.0,615.0
1133,1.2092738151550293,13.0,1.0,1.0,0.0,0.0,508.0,0.0,616.0
1134,1.2092738151550293,14.0,1.0,1.0,0.0,0.0,511.0,0.0,615.0
1135,1.2092738151550293,15.0,1.0,1.0,0.0,0.0,510.0,0.0,615.0
1136,1.2092738151550293,0.0,1.0,1.0,0.0,0.0,507.0,0.0,620.0
1137,1.2092738151550293,1.0,1.0,1.0,0.0,0.0,506.0,0.0,615.0
1138,1.2092738151550293,2.0,1.0,1.0,0.0,0.0,507.0,0.0,617.0
1139,1.2092738151550293,3.0,1.0,1.0,0.0,0.0,506.0,0.0,615.0
1140,1.2092738151550293,4.0,1.0,1.0,0.0,0.0,505.0,0.0,615.0
1141,1.2092738151550293,5.0,1.0,1.0,0.0,0.0,505.0,0.0,617.0
1142,1.2092738151550293,6.0,1.0,1.0,0.0,0.0,506.0,0.0,615.0
1143,1.2092738151550293,7.0,1.0,1.0,0.0,0.0,507.0,0.0,617.0
1144,1.2092738151550293,8.0,1.0,1.0,0.0,0.0,505.0,0.0,620.0
1145,1.2092738151550293,9.0,1.0,1.0,0.0,0.0,508.0,0.0,615.0
1146,1.2092738151550293,10.0,1.0,1.0,0.0,0.0,507.0,0.0,616.0
1147,1.2092738151550293,11.0,1.0,1.0,0.0,0.0,506.0,0.0,612.0
1148,1.2092738151550293,12.0,1.0,1.0,0.0,0.0,505.0,0.0,616.0
1149,1.2092738151550293,13.0,1.0,1.0,0.0,0.0,507.0,0.0,615.0
1150,1.2092738151550293,14.0,1.0,1.0,0.0,0.0,508.0,0.0,616.0
1151,1.2092738151550293,15.0,1.0,1.0,0.0,0.0,508.0,0.0,615.0
1152,1.2092738151550293,0.0,1.0,1.0,0.0,0.0,508.0,0.0,620.0
1153,1.2092738151550293,1.0,1.0,1.0,0.0,0.0,508.0,0.0,616.0
1154,1.2092738151550293,2.0,1.0,1.0,0.0,0.0,507.0,0.0,615.0
1155,1.2092738151550293,3.0,1.0,1.0,0.0,0.0,505.0,0.0,615.0
1156,1.2092738151550293,4.0,1.0,1.0,0.0,0.0,504.0,0.0,617.0
1157,1.2092738151550293,5.0,1.0,1.0,0.0,0.0,503.0,0.0,616.0
1158,1.2092738151550293,6.0,1.0,1.0,0.0,0.0,503.0,0.0,616.0
1159,1.2092738151550293,7.0,1.0,1.0,0.0,0.0,503.0,0.0,616.0
1160,1.2092738151550293,8.0,1.0,1.0,0.0,0.0,504.0,0.0,620.0
1161,1.2092738151550293,9.0,1.0,1.0,0.0,0.0,505.0,0.0,616.0
1162,1.2092738151550293,10.0,1.0,1.0,0.0,0.0,505.0,0.0,615.0
1163,1.2092738151550293,11.0,1.0,1.0,0.0,0.0,507.0,0.0,616.0
1164,1.2092738151550293,12.0,1.0,1.0,0.0,0.0,506.0,0.0,616.0
1165,1.2092738151550293,13.0,1.0,1.0,0.0,0.0,505.0,0.0,615.0
1166,1.2092738151550293,14.0,1.0,1.0,0.0,0.0,504.0,0.0,616.0
1167,1.2092738151550293,15.0,1.0,1.0,0.0,0.0,506.0,0.0,615.0
1168,1.2092738151550293,0.0,1.0,1.0,0.0,0.0,506.0,0.0,621.0
1169,1.2092738151550293,1.0,1.0,1.0,0.0,0.0,504.0,0.0,616.0
1170,1.2092738151550293,2.0,1.0,1.0,0.0,0.0,507.0,0.0,615.0
1171,1.2092738151550293,3.0,1.0,1.0,0.0,0.0,507.0,0.0,616.0
1172,1.2092738151550293,4.0,1.0,1.0,0.0,0.0,508.0,0.0,615.0
1173,1.2092738151550293,5.0,1.0,1.0,0.0,0.0,510.0,0.0,616.0
1174,1.2092738151550293,6.0,1.0,1.0,0.0,0.0,509.0,0.0,616.0
1175,1.2092738151550293,7.0,1.0,1.0,0.0,0.0,508.0,0.0,615.0
1176,1.2092738151550293,8.0,1.0,1.0,0.0,0.0,508.0,0.0,621.0
1177,1.2092738151550293,9.0,1.0,1.0,0.0,0.0,508.0,0.0,616.0
1178,1.2092738151550293,10.0,1.0,1.0,0.0,0.0,508.0,0.0,617.0
1179,1.2092738151550293,11.0,1.0,1.0,0.0,0.0,508.0,0.0,616.0
1180,1.2092738151550293,12.0,1.0,1.0,0.0,0.0,508.0,0.0,615.0
1181,1.2092738151550293,13.0,1.0,1.0,0.0,0.0,507.0,0.0,617.0
1182,1.2092738151550293,14.0,1.0,1.0,0.0,0.0,506.0,0.0,615.0
1183,1.2092738151550293,15.0,1.0,1.0,0.0,0.0,507.0,0.0,617.0
1184,1.2092738151550293,0.0,1.0,1.0,0.0,0.0,508.0,0.0,620.0
1185,1.2092738151550293,1.0,1.0,1.0,0.0,0.0,508.0,0.0,615.0
1186,1.2092738151550293,2.0,1.0,1.0,0.0,0.0,508.0,0.0,616.0
1187,1.2092738151550293,3.0,1.0,1.0,0.0,0.0,509.0,0.0,615.0
1188,1.2092738151550293,4.0,1.0,1.0,0.0,0.0,509.0,0.0,617.0
1189,1.2092738151550293,5.0,1.0,1.0,0.0,0.0,507.0,0.0,616.0
1190,1.2092738151550293,6.0,1.0,1.0,0.0,0.0,509.0,0.0,615.0
1191,1.2092738151550293,7.0,1.0,1.0,0.0,0.0,509.0,0.0,615.0
1192,1.2092738151550293,8.0,1.0,1.0,0.0,0.0,507.0,0.0,620.0
1193,1.2092738151550293,9.0,1.0,1.0,0.0,0.0,508.0,0.0,617.0
1194,1.2092738151550293,10.0,1.0,1.0,0.0,0.0,507.0,0.0,615.0
1195,1.2092738151550293,11.0,1.0,1.0,0.0,0.0,506.0,0.0,616.0
1196,1.2092738151550293,12.0,1.0,1.0,0.0,0.0,508.0,0.0,616.0
1197,1.2092738151550293,13.0,1.0,1.0,0.0,0.0,508.0,0.0,616.0
1198,1.2092738151550293,14.0,1.0,1.0,0.0,0.0,510.0,0.0,617.0
1199,1.2092738151550293,15.0,1.0,1.0,0.0,0.0,509.0,0.0,616.0
1200,1.3093109130859375,0.0,1.0,1.0,0.0,0.0,507.0,0.0,620.0
1201,1.3093109130859375,1.0,1.0,1.0,0.0,0.0,505.0,0.0,616.0
1202,1.3093109130859375,2.0,1.0,1.0,0.0,0.0,505.0,0.0,615.0
1203,1.3093109130859375,3.0,1.0,1.0,0.0,0.0,508.0,0.0,616.0
1204,1.3093109130859375,4.0,1.0,1.0,0.0,0.0,506.0,0.0,615.0
1205,1.3093109130859375,5.0,1.0,1.0,0.0,0.0,507.0,0.0,615.0
1206,1.3093109130859375,6.0,1.0,1.0,0.0,0.0,507.0,0.0,617.0
1207,1.3093109130859375,7.0,1.0,1.0,0.0,0.0,505.0,0.0,615.0
1208,1.3093109130859375,8.0,1.0,1.0,0.0,0.0,505.0,0.0,620.0
1209,1.3093109130859375,9.0,1.0,1.0,0.0,0.0,504.0,0.0,616.0
1210,1.3093109130859375,10.0,1.0,1.0,0.0,0.0,507.0,0.0,615.0
1211,1.3093109130859375,11.0,1.0,1.0,0.0,0.0,508.0,0.0,616.0
1212,1.3093109130859375,12.0,1.0,1.0,0.0,0.0,508.0,0.0,616.0
1213,1.3093109130859375,13.0,1.0,1.0,0.0,0.0,511.0,0.0,616.0
1214,1.3093109130859375,14.0,1.0,1.0,0.0,0.0,510.0,0.0,616.0
1215,1.3093109130859375,15.0,1.0,1.0,0.0,0.0,511.0,0.0,614.0
1216,1.3093109130859375,0.0,1.0,1.0,0.0,0.0,510.0,0.0,620.0
1217,1.3093109130859375,1.0,1.0,1.0,0.0,0.0,507.0,0.0,616.0
1218,1.3093109130859375,2.0,1.0,1.0,0.0,0.0,507.0,0.0,616.0
1219,1.3093109130859375,3.0,1.0,1.0,0.0,0.0,505.0,0.0,615.0
1220,1.3093109130859375,4.0,1.0,1.0,0.0,0.0,505.0,0.0,615.0
1221,1.3093109130859375,5.0,1.0,1.0,0.0,0.0,507.0,0.0,617.0
1222,1.3093109130859375,6.0,1.0,1.0,0.0,0.0,507.0,0.0,615.0
1223,1.3093109130859375,7.0,1.0,1.0,0.0,0.0,509.0,0.0,616.0
1224,1.3093109130859375,8.0,1.0,1.0,0.0,0.0,507.0,0.0,620.0
1225,1.3093109130859375,9.0,1.0,1.0,0.0,0.0,505.0,0.0,615.0
1226,1.3093109130859375,10.0,1.0,1.0,0.0,0.0,506.0,0.0,616.0
1227,1.3093109130859375,11.0,1.0,1.0,0.0,0.0,507.0,0.0,615.0
1228,1.3093109130859375,12.0,1.0,1.0,0.0,0.0,505.0,0.0,616.0
1229,1.3093109130859375,13.0,1.0,1.0,0.0,0.0,508.0,0.0,616.0
1230,1.3093109130859375,14.0,1.0,1.0,0.0,0.0,506.0,0.0,615.0
1231,1.3093109130859375,15.0,1.0,1.0,0.0,0.0,508.0,0.0,616.0
1232,1.3093109130859375,0.0,1.0,1.0,0.0,0.0,506.0,0.0,620.0
1233,1.3093109130859375,1.0,1.0,1.0,0.0,0.0,508.0,0.0,616.0
1234,1.3093109130859375,2.0,1.0,1.0,0.0,0.0,507.0,0.0,615.0
1235,1.3093109130859375,3.0,1.0,1.0,0.0,0.0,505.0,0.0,615.0
1236,1.3093109130859375,4.0,1.0,1.0,0.0,0.0,506.0,0.0,616.0
1237,1.3093109130859375,5.0,1.0,1.0,0.0,0.0,507.0,0.0,615.0
1238,1.3093109130859375,6.0,1.0,1.0,0.0,0.0,505.0,0.0,616.0
1239,1.3093109130859375,7.0,1.0,1.0,0.0,0.0,505.0,0.0,615.0
1240,1.3093109130859375,8.0,1.0,1.0,0.0,0.0,505.0,0.0,620.0
1241,1.3093109130859375,9.0,1.0,1.0,0.0,0.0,507.0,0.0,616.0
1242,1.3093109130859375,10.0,1.0,1.0,0.0,0.0,509.0,0.0,615.0
1243,1.3093109130859375,11.0,1.0,1.0,0.0,0.0,508.0,0.0,616.0
1244,1.3093109130859375,12.0,1.0,1.0,0.0,0.0,506.0,0.0,616.0
1245,1.3093109130859375,13.0,1.0,1.0,0.0,0.0,507.0,0.0,615.0
1246,1.3093109130859375,14.0,1.0,1.0,0.0,0.0,507.0,0.0,616.0
1247,1.3093109130859375,15.0,1.0,1.0,0.0,0.0,506.0,0.0,614.0
1248,1.3093109130859375,0.0,1.0,1.0,0.0,0.0,506.0,0.0,620.0
1249,1.3093109130859375,1.0,1.0,1.0,0.0,0.0,505.0,0.0,616.0
1250,1.3093109130859375,2.0,1.0,1.0,0.0,0.0,505.0,0.0,615.0
1251,1.3093109130859375,3.0,1.0,1.0,0.0,0.0,504.0,0.0,615.0
1252,1.3093109130859375,4.0,1.0,1.0,0.0,0.0,502.0,0.0,616.0
1253,1.3093109130859375,5.0,1.0,1.0,0.0,0.0,504.0,0.0,616.0
1254,1.3093109130859375,6.0,1.0,1.0,0.0,0.0,504.0,0.0,615.0
1255,1.3093109130859375,7.0,1.0,1.0,0.0,0.0,506.0,0.0,615.0
1256,1.3093109130859375,8.0,1.0,1.0,0.0,0.0,505.0,0.0,620.0
1257,1.3093109130859375,9.0,1.0,1.0,0.0,0.0,505.0,0.0,615.0
1258,1.3093109130859375,10.0,1.0,1.0,0.0,0.0,504.0,0.0,617.0
1259,1.3093109130859375,11.0,1.0,1.0,0.0,0.0,505.0,0.0,616.0
1260,1.3093109130859375,12.0,1.0,1.0,0.0,0.0,504.0,0.0,615.0
1261,1.3093109130859375,13.0,1.0,1.0,0.0,0.0,504.0,0.0,617.0
1262,1.3093109130859375,14.0,1.0,1.0,0.0,0.0,504.0,0.0,615.0
1263,1.3093109130859375,15.0,1.0,1.0,0.0,0.0,506.0,0.0,616.0
1264,1.3093109130859375,0.0,1.0,1.0,0.0,0.0,505.0,0.0,620.0
1265,1.3093109130859375,1.0,1.0,1.0,0.0,0.0,505.0,0.0,615.0
1266,1.3093109130859375,2.0,1.0,1.0,0.0,0.0,505.0,0.0,616.0
1267,1.3093109130859375,3.0,1.0,1.0,0.0,0.0,507.0,0.0,615.0
1268,1.3093109130859375,4.0,1.0,1.0,0.0,0.0,507.0,0.0,616.0
1269,1.3093109130859375,5.0,1.0,1.0,0.0,0.0,507.0,0.0,616.0
1270,1.3093109130859375,6.0,1.0,1.0,0.0,0.0,508.0,0.0,615.0
1271,1.3093109130859375,7.0,1.0,1.0,0.0,0.0,505.0,0.0,616.0
1272,1.3093109130859375,8.0,1.0,1.0,0.0,0.0,503.0,0.0,619.0
1273,1.3093109130859375,9.0,1.0,1.0,0.0,0.0,504.0,0.0,616.0
1274,1.3093109130859375,10.0,1.0,1.0,0.0,0.0,506.0,0.0,616.0
1275,1.3093109130859375,11.0,1.0,1.0,0.0,0.0,506.0,0.0,616.0
1276,1.3093109130859375,12.0,1.0,1.0,0.0,0.0,505.0,0.0,616.0
1277,1.3093109130859375,13.0,1.0,1.0,0.0,0.0,505.0,0.0,615.0
1278,1.3093109130859375,14.0,1.0,1.0,0.0,0.0,505.0,0.0,616.0
1279,1.3093109130859375,15.0,1.0,1.0,0.0,0.0,506.0,0.0,616.0
1280,1.3093109130859375,0.0,1.0,1.0,0.0,0.0,505.0,0.0,620.0
1281,1.3093109130859375,1.0,1.0,1.0,0.0,0.0,508.0,0.0,616.0
1282,1.3093109130859375,2.0,1.0,1.0,0.0,0.0,509.0,0.0,615.0
1283,1.3093109130859375,3.0,1.0,1.0,0.0,0.0,511.0,0.0,616.0
1284,1.3093109130859375,4.0,1.0,1.0,0.0,0.0,509.0,0.0,616.0
1285,1.3093109130859375,5.0,1.0,1.0,0.0,0.0,508.0,0.0,615.0
1286,1.3093109130859375,6.0,1.0,1.0,0.0,0.0,509.0,0.0,615.0
1287,1.3093109130859375,7.0,1.0,1.0,0.0,0.0,509.0,0.0,615.0
1288,1.3093109130859375,8.0,1.0,1.0,0.0,0.0,507.0,0.0,620.0
1289,1.3093109130859375,9.0,1.0,1.0,0.0,0.0,506.0,0.0,615.0
1290,1.3093109130859375,10.0,1.0,1.0,0.0,0.0,505.0,0.0,616.0
1291,1.3093109130859375,11.0,1.0,1.0,0.0,0.0,505.0,0.0,614.0
1292,1.3093109130859375,12.0,1.0,1.0,0.0,0.0,503.0,0.0,616.0
1293,1.3093109130859375,13.0,1.0,1.0,0.0,0.0,505.0,0.0,616.0
1294,1.3093109130859375,14.0,1.0,1.0,0.0,0.0,508.0,0.0,615.0
1295,1.3093109130859375,15.0,1.0,1.0,0.0,0.0,507.0,0.0,615.0
1296,1.3093109130859375,0.0,1.0,1.0,0.0,0.0,505.0,0.0,620.0
1297,1.3093109130859375,1.0,1.0,1.0,0.0,0.0,505.0,0.0,616.0
1298,1.3093109130859375,2.0,1.0,1.0,0.0,0.0,505.0,0.0,617.0
1299,1.3093109130859375,3.0,1.0,1.0,0.0,0.0,508.0,0.0,616.0
1300,1.484299898147583,4.0,1.0,1.0,0.0,0.0,508.0,0.0,615.0
1301,1.484299898147583,5.0,1.0,1.0,0.0,0.0,508.0,0.0,616.0
1302,1.484299898147583,6.0,1.0,1.0,0.0,0.0,506.0,0.0,615.0
1303,1.484299898147583,7.0,1.0,1.0,0.0,0.0,506.0,0.0,616.0
1304,1.484299898147583,8.0,1.0,1.0,0.0,0.0,505.0,0.0,620.0
1305,1.484299898147583,9.0,1.0,1.0,0.0,0.0,505.0,0.0,615.0
1306,1.484299898147583,10.0,1.0,1.0,0.0,0.0,508.0,0.0,617.0
1307,1.484299898147583,11.0,1.0,1.0,0.0,0.0,506.0,0.0,615.0
1308,1.484299898147583,12.0,1.0,1.0,0.0,0.0,507.0,0.0,616.0
1309,1.484299898147583,13.0,1.0,1.0,0.0,0.0,507.0,0.0,615.0
1310,1.484299898147583,14.0,1.0,1.0,0.0,0.0,507.0,0.0,615.0
1311,1.484299898147583,15.0,1.0,1.0,0.0,0.0,507.0,0.0,616.0
1312,1.484299898147583,0.0,1.0,1.0,0.0,0.0,506.0,0.0,620.0
1313,1.484299898147583,1.0,1.0,1.0,0.0,0.0,507.0,0.0,617.0
1314,1.484299898147583,2.0,1.0,1.0,0.0,0.0,507.0,0.0,616.0
1315,1.484299898147583,3.0,1.0,1.0,0.0,0.0,505.0,0.0,612.0
1316,1.484299898147583,4.0,1.0,1.0,0.0,0.0,506.0,0.0,616.0
1317,1.484299898147583,5.0,1.0,1.0,0.0,0.0,506.0,0.0,616.0
1318,1.484299898147583,6.0,1.0,1.0,0.0,0.0,504.0,0.0,617.0
1319,1.484299898147583,7.0,1.0,1.0,0.0,0.0,506.0,0.0,615.0
1320,1.484299898147583,8.0,1.0,1.0,0.0,0.0,506.0,0.0,619.0
1321,1.484299898147583,9.0,1.0,1.0,0.0,0.0,506.0,0.0,616.0
1322,1.484299898147583,10.0,1.0,1.0,0.0,0.0,505.0,0.0,615.0
1323,1.484299898147583,11.0,1.0,1.0,0.0,0.0,509.0,0.0,617.0
1324,1.484299898147583,12.0,1.0,1.0,0.0,0.0,512.0,0.0,616.0
1325,1.484299898147583,13.0,1.0,1.0,0.0,0.0,512.0,0.0,615.0
1326,1.484299898147583,14.0,1.0,1.0,0.0,0.0,511.0,0.0,616.0
1327,1.484299898147583,15.0,1.0,1.0,0.0,0.0,511.0,0.0,615.0
1328,1.484299898147583,0.0,1.0,1.0,0.0,0.0,510.0,0.0,620.0
1329,1.484299898147583,1.0,1.0,1.0,0.0,0.0,509.0,0.0,615.0
1330,1.484299898147583,2.0,1.0,1.0,0.0,0.0,507.0,0.0,615.0
1331,1.484299898147583,3.0,1.0,1.0,0.0,0.0,508.0,0.0,613.0
1332,1.484299898147583,4.0,1.0,1.0,0.0,0.0,507.0,0.0,615.0
1333,1.484299898147583,5.0,1.0,1.0,0.0,0.0,507.0,0.0,616.0
1334,1.484299898147583,6.0,1.0,1.0,0.0,0.0,507.0,0.0,615.0
1335,1.484299898147583,7.0,1.0,1.0,0.0,0.0,508.0,0.0,615.0
1336,1.484299898147583,8.0,1.0,1.0,0.0,0.0,508.0,0.0,620.0
1337,1.484299898147583,9.0,1.0,1.0,0.0,0.0,505.0,0.0,615.0
1338,1.484299898147583,10.0,1.0,1.0,0.0,0.0,504.0,0.0,616.0
1339,1.484299898147583,11.0,1.0,1.0,0.0,0.0,505.0,0.0,616.0
1340,1.484299898147583,12.0,1.0,1.0,0.0,0.0,508.0,0.0,615.0
1341,1.484299898147583,13.0,1.0,1.0,0.0,0.0,509.0,0.0,616.0
1342,1.484299898147583,14.0,1.0,1.0,0.0,0.0,507.0,0.0,615.0
1343,1.484299898147583,15.0,1.0,1.0,0.0,0.0,510.0,0.0,616.0
1344,1.484299898147583,0.0,1.0,1.0,0.0,0.0,509.0,0.0,620.0
1345,1.484299898147583,1.0,1.0,1.0,0.0,0.0,509.0,0.0,616.0
1346,1.484299898147583,2.0,1.0,1.0,0.0,0.0,507.0,0.0,616.0
1347,1.484299898147583,3.0,1.0,1.0,0.0,0.0,507.0,0.0,615.0
1348,1.484299898147583,4.0,1.0,1.0,0.0,0.0,507.0,0.0,616.0
1349,1.484299898147583,5.0,1.0,1.0,0.0,0.0,507.0,0.0,615.0
1350,1.484299898147583,6.0,1.0,1.0,0.0,0.0,507.0,0.0,615.0
1351,1.484299898147583,7.0,1.0,1.0,0.0,0.0,506.0,0.0,616.0
1352,1.484299898147583,8.0,1.0,1.0,0.0,0.0,507.0,0.0,620.0
1353,1.484299898147583,9.0,1.0,1.0,0.0,0.0,507.0,0.0,617.0
1354,1.484299898147583,10.0,1.0,1.0,0.0,0.0,506.0,0.0,615.0
1355,1.484299898147583,11.0,1.0,1.0,0.0,0.0,508.0,0.0,612.0
1356,1.484299898147583,12.0,1.0,1.0,0.0,0.0,507.0,0.0,616.0
1357,1.484299898147583,13.0,1.0,1.0,0.0,0.0,506.0,0.0,615.0
1358,1.484299898147583,14.0,1.0,1.0,0.0,0.0,506.0,0.0,616.0
1359,1.484299898147583,15.0,1.0,1.0,0.0,0.0,507.0,0.0,616.0
1360,1.484299898147583,0.0,1.0,1.0,0.0,0.0,506.0,0.0,620.0
1361,1.484299898147583,1.0,1.0,1.0,0.0,0.0,507.0,0.0,616.0
1362,1.484299898147583,2.0,1.0,1.0,0.0,0.0,507.0,0.0,615.0
1363,1.484299898147583,3.0,1.0,1.0,0.0,0.0,508.0,0.0,617.0
1364,1.484299898147583,4.0,1.0,1.0,0.0,0.0,506.0,0.0,616.0
1365,1.484299898147583,5.0,1.0,1.0,0.0,0.0,506.0,0.0,615.0
1366,1.484299898147583,6.0,1.0,1.0,0.0,0.0,504.0,0.0,616.0
1367,1.484299898147583,7.0,1.0,1.0,0.0,0.0,505.0,0.0,615.0
1368,1.484299898147583,8.0,1.0,1.0,0.0,0.0,506.0,0.0,621.0
1369,1.484299898147583,9.0,1.0,1.0,0.0,0.0,506.0,0.0,615.0
1370,1.484299898147583,10.0,1.0,1.0,0.0,0.0,506.0,0.0,615.0
1371,1.484299898147583,11.0,1.0,1.0,0.0,0.0,506.0,0.0,614.0
1372,1.484299898147583,12.0,1.0,1.0,0.0,0.0,505.0,0.0,616.0
1373,1.484299898147583,13.0,1.0,1.0,0.0,0.0,506.0,0.0,617.0
1374,1.484299898147583,14.0,1.0,1.0,0.0,0.0,507.0,0.0,616.0
1375,1.484299898147583,15.0,1.0,1.0,0.0,0.0,509.0,0.0,616.0
1376,1.484299898147583,0.0,1.0,1.0,0.0,0.0,508.0,0.0,621.0
1377,1.484299898147583,1.0,1.0,1.0,0.0,0.0,509.0,0.0,615.0
1378,1.484299898147583,2.0,1.0,1.0,0.0,0.0,510.0,0.0,615.0
1379,1.484299898147583,3.0,1.0,1.0,0.0,0.0,507.0,0.0,616.0
1380,1.484299898147583,4.0,1.0,1.0,0.0,0.0,506.0,0.0,615.0
1381,1.484299898147583,5.0,1.0,1.0,0.0,0.0,507.0,0.0,616.0
1382,1.484299898147583,6.0,1.0,1.0,0.0,0.0,505.0,0.0,616.0
1383,1.484299898147583,7.0,1.0,1.0,0.0,0.0,508.0,0.0,615.0
1384,1.484299898147583,8.0,1.0,1.0,0.0,0.0,507.0,0.0,619.0
1385,1.484299898147583,9.0,1.0,1.0,0.0,0.0,505.0,0.0,615.0
1386,1.484299898147583,10.0,1.0,1.0,0.0,0.0,506.0,0.0,615.0
1387,1.484299898147583,11.0,1.0,1.0,0.0,0.0,506.0,0.0,615.0
1388,1.484299898147583,12.0,1.0,1.0,0.0,0.0,508.0,0.0,616.0
1389,1.484299898147583,13.0,1.0,1.0,0.0,0.0,508.0,0.0,616.0
1390,1.484299898147583,14.0,1.0,1.0,0.0,0.0,509.0,0.0,615.0
1391,1.484299898147583,15.0,1.0,1.0,0.0,0.0,509.0,0.0,616.0
1392,1.484299898147583,0.0,1.0,1.0,0.0,0.0,508.0,0.0,620.0
1393,1.484299898147583,1.0,1.0,1.0,0.0,0.0,508.0,0.0,615.0
1394,1.484299898147583,2.0,1.0,1.0,0.0,0.0,508.0,0.0,615.0
1395,1.484299898147583,3.0,1.0,1.0,0.0,0.0,510.0,0.0,612.0
1396,1.484299898147583,4.0,1.0,1.0,0.0,0.0,510.0,0.0,616.0
1397,1.484299898147583,5.0,1.0,1.0,0.0,0.0,508.0,0.0,616.0
1398,1.484299898147583,6.0,1.0,1.0,0.0,0.0,507.0,0.0,616.0
1399,1.484299898147583,7.0,1.0,1.0,0.0,0.0,507.0,0.0,615.0
1400,1.5092599391937256,8.0,1.0,1.0,0.0,0.0,507.0,0.0,620.0
1401,1.5092599391937256,9.0,1.0,1.0,0.0,0.0,508.0,0.0,615.0
1402,1.5092599391937256,10.0,1.0,1.0,0.0,0.0,506.0,0.0,616.0
1403,1.5092599391937256,11.0,1.0,1.0,0.0,0.0,507.0,0.0,616.0
1404,1.5092599391937256,12.0,1.0,1.0,0.0,0.0,506.0,0.0,616.0
1405,1.5092599391937256,13.0,1.0,1.0,0.0,0.0,504.0,0.0,615.0
1406,1.5092599391937256,14.0,1.0,1.0,0.0,0.0,505.0,0.0,616.0
1407,1.5092599391937256,15.0,1.0,1.0,0.0,0.0,504.0,0.0,615.0
1408,1.5092599391937256,0.0,1.0,1.0,0.0,0.0,504.0,0.0,620.0
1409,1.5092599391937256,1.0,1.0,1.0,0.0,0.0,504.0,0.0,615.0
1410,1.5092599391937256,2.0,1.0,1.0,0.0,0.0,506.0,0.0,615.0
1411,1.5092599391937256,3.0,1.0,1.0,0.0,0.0,507.0,0.0,616.0
1412,1.5092599391937256,4.0,1.0,1.0,0.0,0.0,506.0,0.0,615.0
1413,1.5092599391937256,5.0,1.0,1.0,0.0,0.0,507.0,0.0,615.0
1414,1.5092599391937256,6.0,1.0,1.0,0.0,0.0,508.0,0.0,615.0
1415,1.5092599391937256,7.0,1.0,1.0,0.0,0.0,508.0,0.0,614.0
1416,1.5092599391937256,8.0,1.0,1.0,0.0,0.0,506.0,0.0,620.0
1417,1.5092599391937256,9.0,1.0,1.0,0.0,0.0,508.0,0.0,616.0
1418,1.5092599391937256,10.0,1.0,1.0,0.0,0.0,506.0,0.0,616.0
1419,1.5092599391937256,11.0,1.0,1.0,0.0,0.0,506.0,0.0,616.0
1420,1.5092599391937256,12.0,1.0,1.0,0.0,0.0,505.0,0.0,615.0
1421,1.5092599391937256,13.0,1.0,1.0,0.0,0.0,505.0,0.0,615.0
1422,1.5092599391937256,14.0,1.0,1.0,0.0,0.0,505.0,0.0,615.0
1423,1.5092599391937256,15.0,1.0,1.0,0.0,0.0,507.0,0.0,615.0
1424,1.5092599391937256,0.0,1.0,1.0,0.0,0.0,506.0,0.0,620.0
1425,1.5092599391937256,1.0,1.0,1.0,0.0,0.0,505.0,0.0,616.0
1426,1.5092599391937256,2.0,1.0,1.0,0.0,0.0,505.0,0.0,616.0
1427,1.5092599391937256,3.0,1.0,1.0,0.0,0.0,508.0,0.0,616.0
1428,1.5092599391937256,4.0,1.0,1.0,0.0,0.0,508.0,0.0,616.0
1429,1.5092599391937256,5.0,1.0,1.0,0.0,0.0,506.0,0.0,615.0
1430,1.5092599391937256,6.0,1.0,1.0,0.0,0.0,506.0,0.0,615.0
1431,1.5092599391937256,7.0,1.0,1.0,0.0,0.0,507.0,0.0,616.0
1432,1.5092599391937256,8.0,1.0,1.0,0.0,0.0,506.0,0.0,620.0
1433,1.5092599391937256,9.0,1.0,1.0,0.0,0.0,507.0,0.0,616.0
1434,1.5092599391937256,10.0,1.0,1.0,0.0,0.0,506.0,0.0,615.0
1435,1.5092599391937256,11.0,1.0,1.0,0.0,0.0,508.0,0.0,615.0
1436,1.5092599391937256,12.0,1.0,1.0,0.0,0.0,506.0,0.0,616.0
1437,1.5092599391937256,13.0,1.0,1.0,0.0,0.0,505.0,0.0,616.0
1438,1.5092599391937256,14.0,1.0,1.0,0.0,0.0,505.0,0.0,616.0
1439,1.5092599391937256,15.0,1.0,1.0,0.0,0.0,507.0,0.0,616.0
1440,1.5092599391937256,0.0,1.0,1.0,0.0,0.0,509.0,0.0,619.0
1441,1.5092599391937256,1.0,1.0,1.0,0.0,0.0,509.0,0.0,615.0
1442,1.5092599391937256,2.0,1.0,1.0,0.0,0.0,508.0,0.0,616.0
1443,1.5092599391937256,3.0,1.0,1.0,0.0,0.0,508.0,0.0,615.0
1444,1.5092599391937256,4.0,1.0,1.0,0.0,0.0,506.0,0.0,615.0
1445,1.5092599391937256,5.0,1.0,1.0,0.0,0.0,505.0,0.0,615.0
1446,1.5092599391937256,6.0,1.0,1.0,0.0,0.0,505.0,0.0,615.0
1447,1.5092599391937256,7.0,1.0,1.0,0.0,0.0,507.0,0.0,615.0
1448,1.5092599391937256,8.0,1.0,1.0,0.0,0.0,508.0,0.0,620.0
1449,1.5092599391937256,9.0,1.0,1.0,0.0,0.0,507.0,0.0,615.0
1450,1.5092599391937256,10.0,1.0,1.0,0.0,0.0,506.0,0.0,615.0
1451,1.5092599391937256,11.0,1.0,1.0,0.0,0.0,506.0,0.0,616.0
1452,1.5092599391937256,12.0,1.0,1.0,0.0,0.0,507.0,0.0,615.0
1453,1.5092599391937256,13.0,1.0,1.0,0.0,0.0,507.0,0.0,616.0
1454,1.5092599391937256,14.0,1.0,1.0,0.0,0.0,505.0,0.0,615.0
1455,1.5092599391937256,15.0,1.0,1.0,0.0,0.0,505.0,0.0,615.0
1456,1.5092599391937256,0.0,1.0,1.0,0.0,0.0,504.0,0.0,620.0
1457,1.5092599391937256,1.0,1.0,1.0,0.0,0.0,506.0,0.0,615.0
1458,1.5092599391937256,2.0,1.0,1.0,0.0,0.0,507.0,0.0,616.0
1459,1.5092599391937256,3.0,1.0,1.0,0.0,0.0,507.0,0.0,615.0
1460,1.5092599391937256,4.0,1.0,1.0,0.0,0.0,507.0,0.0,615.0
1461,1.5092599391937256,5.0,1.0,1.0,0.0,0.0,505.0,0.0,615.0
1462,1.5092599391937256,6.0,1.0,1.0,0.0,0.0,505.0,0.0,616.0
1463,1.5092599391937256,7.0,1.0,1.0,0.0,0.0,508.0,0.0,616.0
1464,1.5092599391937256,8.0,1.0,1.0,0.0,0.0,507.0,0.0,620.0
1465,1.5092599391937256,9.0,1.0,1.0,0.0,0.0,507.0,0.0,615.0
1466,1.5092599391937256,10.0,1.0,1.0,0.0,0.0,509.0,0.0,616.0
1467,1.5092599391937256,11.0,1.0,1.0,0.0,0.0,510.0,0.0,615.0
1468,1.5092599391937256,12.0,1.0,1.0,0.0,0.0,507.0,0.0,617.0
1469,1.5092599391937256,13.0,1.0,1.0,0.0,0.0,506.0,0.0,615.0
1470,1.5092599391937256,14.0,1.0,1.0,0.0,0.0,507.0,0.0,615.0
1471,1.5092599391937256,15.0,1.0,1.0,0.0,0.0,506.0,0.0,616.0
1472,1.5092599391937256,0.0,1.0,1.0,0.0,0.0,507.0,0.0,620.0
1473,1.5092599391937256,1.0,1.0,1.0,0.0,0.0,510.0,0.0,616.0
1474,1.5092599391937256,2.0,1.0,1.0,0.0,0.0,510.0,0.0,616.0
1475,1.5092599391937256,3.0,1.0,1.0,0.0,0.0,509.0,0.0,615.0
1476,1.5092599391937256,4.0,1.0,1.0,0.0,0.0,508.0,0.0,616.0
1477,1.5092599391937256,5.0,1.0,1.0,0.0,0.0,508.0,0.0,616.0
1478,1.5092599391937256,6.0,1.0,1.0,0.0,0.0,507.0,0.0,617.0
1479,1.5092599391937256,7.0,1.0,1.0,0.0,0.0,507.0,0.0,615.0
1480,1.5092599391937256,8.0,1.0,1.0,0.0,0.0,506.0,0.0,619.0
1481,1.5092599391937256,9.0,1.0,1.0,0.0,0.0,506.0,0.0,616.0
1482,1.5092599391937256,10.0,1.0,1.0,0.0,0.0,504.0,0.0,616.0
1483,1.5092599391937256,11.0,1.0,1.0,0.0,0.0,505.0,0.0,616.0
1484,1.5092599391937256,12.0,1.0,1.0,0.0,0.0,504.0,0.0,616.0
1485,1.5092599391937256,13.0,1.0,1.0,0.0,0.0,504.0,0.0,616.0
1486,1.5092599391937256,14.0,1.0,1.0,0.0,0.0,504.0,0.0,615.0
1487,1.5092599391937256,15.0,1.0,1.0,0.0,0.0,505.0,0.0,615.0
1488,1.5092599391937256,0.0,1.0,1.0,0.0,0.0,506.0,0.0,621.0
1489,1.5092599391937256,1.0,1.0,1.0,0.0,0.0,506.0,0.0,616.0
1490,1.5092599391937256,2.0,1.0,1.0,0.0,0.0,505.0,0.0,615.0
1491,1.5092599391937256,3.0,1.0,1.0,0.0,0.0,505.0,0.0,616.0
1492,1.5092599391937256,4.0,1.0,1.0,0.0,0.0,504.0,0.0,615.0
1493,1.5092599391937256,5.0,1.0,1.0,0.0,0.0,505.0,0.0,616.0
1494,1.5092599391937256,6.0,1.0,1.0,0.0,0.0,506.0,0.0,616.0
1495,1.5092599391937256,7.0,1.0,1.0,0.0,0.0,505.0,0.0,615.0
1496,1.5092599391937256,8.0,1.0,1.0,0.0,0.0,505.0,0.0,619.0
1497,1.5092599391937256,9.0,1.0,1.0,0.0,0.0,507.0,0.0,615.0
1498,1.5092599391937256,10.0,1.0,1.0,0.0,0.0,505.0,0.0,616.0
1499,1.5092599391937256,11.0,1.0,1.0,0.0,0.0,504.0,0.0,613.0
1500,1.6093089580535889,12.0,1.0,1.0,0.0,0.0,505.0,0.0,615.0
1501,1.6093089580535889,13.0,1.0,1.0,0.0,0.0,504.0,0.0,616.0
1502,1.6093089580535889,14.0,1.0,1.0,0.0,0.0,503.0,0.0,616.0
1503,1.6093089580535889,15.0,1.0,1.0,0.0,0.0,505.0,0.0,616.0
1504,1.6093089580535889,0.0,1.0,1.0,0.0,0.0,505.0,0.0,620.0
1505,1.6093089580535889,1.0,1.0,1.0,0.0,0.0,505.0,0.0,616.0
1506,1.6093089580535889,2.0,1.0,1.0,0.0,0.0,505.0,0.0,616.0
1507,1.6093089580535889,3.0,1.0,1.0,0.0,0.0,507.0,0.0,615.0
1508,1.6093089580535889,4.0,1.0,1.0,0.0,0.0,504.0,0.0,617.0
1509,1.6093089580535889,5.0,1.0,1.0,0.0,0.0,506.0,0.0,616.0
1510,1.6093089580535889,6.0,1.0,1.0,0.0,0.0,505.0,0.0,616.0
1511,1.6093089580535889,7.0,1.0,1.0,0.0,0.0,505.0,0.0,616.0
1512,1.6093089580535889,8.0,1.0,1.0,0.0,0.0,505.0,0.0,620.0
1513,1.6093089580535889,9.0,1.0,1.0,0.0,0.0,505.0,0.0,616.0
1514,1.6093089580535889,10.0,1.0,1.0,0.0,0.0,505.0,0.0,616.0
1515,1.6093089580535889,11.0,1.0,1.0,0.0,0.0,505.0,0.0,615.0
1516,1.6093089580535889,12.0,1.0,1.0,0.0,0.0,507.0,0.0,616.0
1517,1.6093089580535889,13.0,1.0,1.0,0.0,0.0,507.0,0.0,615.0
1518,1.6093089580535889,14.0,1.0,1.0,0.0,0.0,506.0,0.0,616.0
1519,1.6093089580535889,15.0,1.0,1.0,0.0,0.0,507.0,0.0,615.0
1520,1.6093089580535889,0.0,1.0,1.0,0.0,0.0,507.0,0.0,620.0
1521,1.6093089580535889,1.0,1.0,1.0,0.0,0.0,508.0,0.0,616.0
1522,1.6093089580535889,2.0,1.0,1.0,0.0,0.0,508.0,0.0,615.0
1523,1.6093089580535889,3.0,1.0,1.0,0.0,0.0,509.0,0.0,616.0
1524,1.6093089580535889,4.0,1.0,1.0,0.0,0.0,508.0,0.0,615.0
1525,1.6093089580535889,5.0,1.0,1.0,0.0,0.0,509.0,0.0,615.0
1526,1.6093089580535889,6.0,1.0,1.0,0.0,0.0,508.0,0.0,616.0
1527,1.6093089580535889,7.0,1.0,1.0,0.0,0.0,506.0,0.0,615.0
1528,1.6093089580535889,8.0,1.0,1.0,0.0,0.0,505.0,0.0,621.0
1529,1.6093089580535889,9.0,1.0,1.0,0.0,0.0,505.0,0.0,616.0
1530,1.6093089580535889,10.0,1.0,1.0,0.0,0.0,504.0,0.0,615.0
1531,1.6093089580535889,11.0,1.0,1.0,0.0,0.0,504.0,0.0,616.0
1532,1.6093089580535889,12.0,1.0,1.0,0.0,0.0,506.0,0.0,615.0
1533,1.6093089580535889,13.0,1.0,1.0,0.0,0.0,507.0,0.0,617.0
1534,1.6093089580535889,14.0,1.0,1.0,0.0,0.0,507.0,0.0,615.0
1535,1.6093089580535889,15.0,1.0,1.0,0.0,0.0,507.0,0.0,615.0
1536,1.6093089580535889,0.0,1.0,1.0,0.0,0.0,505.0,0.0,620.0
1537,1.6093089580535889,1.0,1.0,1.0,0.0,0.0,505.0,0.0,615.0
1538,1.6093089580535889,2.0,1.0,1.0,0.0,0.0,504.0,0.0,616.0
1539,1.6093089580535889,3.0,1.0,1.0,0.0,0.0,506.0,0.0,613.0
1540,1.6093089580535889,4.0,1.0,1.0,0.0,0.0,508.0,0.0,615.0
1541,1.6093089580535889,5.0,1.0,1.0,0.0,0.0,509.0,0.0,616.0
1542,1.6093089580535889,6.0,1.0,1.0,0.0,0.0,511.0,0.0,615.0
1543,1.6093089580535889,7.0,1.0,1.0,0.0,0.0,511.0,0.0,615.0
1544,1.6093089580535889,8.0,1.0,1.0,0.0,0.0,511.0,0.0,620.0
1545,1.6093089580535889,9.0,1.0,1.0,0.0,0.0,510.0,0.0,615.0
1546,1.6093089580535889,10.0,1.0,1.0,0.0,0.0,510.0,0.0,616.0
1547,1.6093089580535889,11.0,1.0,1.0,0.0,0.0,511.0,0.0,615.0
1548,1.6093089580535889,12.0,1.0,1.0,0.0,0.0,508.0,0.0,616.0
1549,1.6093089580535889,13.0,1.0,1.0,0.0,0.0,507.0,0.0,615.0
1550,1.6093089580535889,14.0,1.0,1.0,0.0,0.0,507.0,0.0,615.0
1551,1.6093089580535889,15.0,1.0,1.0,0.0,0.0,508.0,0.0,616.0
1552,1.6093089580535889,0.0,1.0,1.0,0.0,0.0,505.0,0.0,620.0
1553,1.6093089580535889,1.0,1.0,1.0,0.0,0.0,507.0,0.0,617.0
1554,1.6093089580535889,2.0,1.0,1.0,0.0,0.0,508.0,0.0,616.0
1555,1.6093089580535889,3.0,1.0,1.0,0.0,0.0,509.0,0.0,615.0
1556,1.6093089580535889,4.0,1.0,1.0,0.0,0.0,508.0,0.0,617.0
1557,1.6093089580535889,5.0,1.0,1.0,0.0,0.0,506.0,0.0,615.0
1558,1.6093089580535889,6.0,1.0,1.0,0.0,0.0,506.0,0.0,617.0
1559,1.6093089580535889,7.0,1.0,1.0,0.0,0.0,505.0,0.0,616.0
1560,1.6093089580535889,8.0,1.0,1.0,0.0,0.0,505.0,0.0,619.0
1561,1.6093089580535889,9.0,1.0,1.0,0.0,0.0,508.0,0.0,616.0
1562,1.6093089580535889,10.0,1.0,1.0,0.0,0.0,507.0,0.0,616.0
1563,1.6093089580535889,11.0,1.0,1.0,0.0,0.0,508.0,0.0,617.0
1564,1.6093089580535889,12.0,1.0,1.0,0.0,0.0,510.0,0.0,616.0
1565,1.6093089580535889,13.0,1.0,1.0,0.0,0.0,508.0,0.0,616.0
1566,1.6093089580535889,14.0,1.0,1.0,0.0,0.0,507.0,0.0,617.0
1567,1.6093089580535889,15.0,1.0,1.0,0.0,0.0,508.0,0.0,615.0
1568,1.6093089580535889,0.0,1.0,1.0,0.0,0.0,508.0,0.0,620.0
1569,1.6093089580535889,1.0,1.0,1.0,0.0,0.0,510.0,0.0,616.0
1570,1.6093089580535889,2.0,1.0,1.0,0.0,0.0,510.0,0.0,615.0
1571,1.6093089580535889,3.0,1.0,1.0,0.0,0.0,508.0,0.0,616.0
1572,1.6093089580535889,4.0,1.0,1.0,0.0,0.0,508.0,0.0,615.0
1573,1.6093089580535889,5.0,1.0,1.0,0.0,0.0,513.0,0.0,616.0
1574,1.6093089580535889,6.0,1.0,1.0,0.0,0.0,510.0,0.0,616.0
1575,1.6093089580535889,7.0,1.0,1.0,0.0,0.0,510.0,0.0,615.0
1576,1.6093089580535889,8.0,1.0,1.0,0.0,0.0,509.0,0.0,620.0
1577,1.6093089580535889,9.0,1.0,1.0,0.0,0.0,508.0,0.0,615.0
1578,1.6093089580535889,10.0,1.0,1.0,0.0,0.0,509.0,0.0,616.0
1579,1.6093089580535889,11.0,1.0,1.0,0.0,0.0,508.0,0.0,615.0
1580,1.6093089580535889,12.0,1.0,1.0,0.0,0.0,507.0,0.0,615.0
1581,1.6093089580535889,13.0,1.0,1.0,0.0,0.0,506.0,0.0,616.0
1582,1.6093089580535889,14.0,1.0,1.0,0.0,0.0,505.0,0.0,615.0
1583,1.6093089580535889,15.0,1.0,1.0,0.0,0.0,505.0,0.0,616.0
1584,1.6093089580535889,0.0,1.0,1.0,0.0,0.0,506.0,0.0,619.0
1585,1.6093089580535889,1.0,1.0,1.0,0.0,0.0,505.0,0.0,616.0
1586,1.6093089580535889,2.0,1.0,1.0,0.0,0.0,506.0,0.0,615.0
1587,1.6093089580535889,3.0,1.0,1.0,0.0,0.0,508.0,0.0,614.0
1588,1.6093089580535889,4.0,1.0,1.0,0.0,0.0,508.0,0.0,616.0
1589,1.6093089580535889,5.0,1.0,1.0,0.0,0.0,510.0,0.0,615.0
1590,1.6093089580535889,6.0,1.0,1.0,0.0,0.0,510.0,0.0,615.0
1591,1.6093089580535889,7.0,1.0,1.0,0.0,0.0,508.0,0.0,616.0
1592,1.6093089580535889,8.0,1.0,1.0,0.0,0.0,506.0,0.0,620.0
1593,1.6093089580535889,9.0,1.0,1.0,0.0,0.0,506.0,0.0,616.0
1594,1.6093089580535889,10.0,1.0,1.0,0.0,0.0,505.0,0.0,615.0
1595,1.6093089580535889,11.0,1.0,1.0,0.0,0.0,505.0,0.0,615.0
1596,1.6093089580535889,12.0,1.0,1.0,0.0,0.0,505.0,0.0,616.0
1597,1.6093089580535889,13.0,1.0,1.0,0.0,0.0,503.0,0.0,616.0
1598,1.6093089580535889,14.0,1.0,1.0,0.0,0.0,502.0,0.0,617.0
1599,1.6093089580535889,15.0,1.0,1.0,0.0,0.0,502.0,0.0,615.0
1600,1.7342987060546875,0.0,1.0,1.0,0.0,0.0,503.0,0.0,620.0
1601,1.7342987060546875,1.0,1.0,1.0,0.0,0.0,503.0,0.0,617.0
1602,1.7342987060546875,2.0,1.0,1.0,0.0,0.0,504.0,0.0,616.0
1603,1.7342987060546875,3.0,1.0,1.0,0.0,0.0,504.0,0.0,616.0
1604,1.7342987060546875,4.0,1.0,1.0,0.0,0.0,504.0,0.0,616.0
1605,1.7342987060546875,5.0,1.0,1.0,0.0,0.0,503.0,0.0,615.0
1606,1.7342987060546875,6.0,1.0,1.0,0.0,0.0,503.0,0.0,616.0
1607,1.7342987060546875,7.0,1.0,1.0,0.0,0.0,504.0,0.0,615.0
1608,1.7342987060546875,8.0,1.0,1.0,0.0,0.0,504.0,0.0,621.0
1609,1.7342987060546875,9.0,1.0,1.0,0.0,0.0,503.0,0.0,615.0
1610,1.7342987060546875,10.0,1.0,1.0,0.0,0.0,502.0,0.0,616.0
1611,1.7342987060546875,11.0,1.0,1.0,0.0,0.0,504.0,0.0,616.0
1612,1.7342987060546875,12.0,1.0,1.0,0.0,0.0,505.0,0.0,615.0
1613,1.7342987060546875,13.0,1.0,1.0,0.0,0.0,506.0,0.0,617.0
1614,1.7342987060546875,14.0,1.0,1.0,0.0,0.0,503.0,0.0,615.0
1615,1.7342987060546875,15.0,1.0,1.0,0.0,0.0,502.0,0.0,615.0
1616,1.7342987060546875,0.0,1.0,1.0,0.0,0.0,503.0,0.0,620.0
1617,1.7342987060546875,1.0,1.0,1.0,0.0,0.0,503.0,0.0,615.0
1618,1.7342987060546875,2.0,1.0,1.0,0.0,0.0,504.0,0.0,616.0
1619,1.7342987060546875,3.0,1.0,1.0,0.0,0.0,506.0,0.0,615.0
1620,1.7342987060546875,4.0,1.0,1.0,0.0,0.0,505.0,0.0,615.0
1621,1.7342987060546875,5.0,1.0,1.0,0.0,0.0,506.0,0.0,615.0
1622,1.7342987060546875,6.0,1.0,1.0,0.0,0.0,506.0,0.0,615.0
1623,1.7342987060546875,7.0,1.0,1.0,0.0,0.0,507.0,0.0,616.0
1624,1.7342987060546875,8.0,1.0,1.0,0.0,0.0,507.0,0.0,620.0
1625,1.7342987060546875,9.0,1.0,1.0,0.0,0.0,505.0,0.0,615.0
1626,1.7342987060546875,10.0,1.0,1.0,0.0,0.0,506.0,0.0,615.0
1627,1.7342987060546875,11.0,1.0,1.0,0.0,0.0,506.0,0.0,612.0
1628,1.7342987060546875,12.0,1.0,1.0,0.0,0.0,505.0,0.0,616.0
1629,1.7342987060546875,13.0,1.0,1.0,0.0,0.0,505.0,0.0,615.0
1630,1.7342987060546875,14.0,1.0,1.0,0.0,0.0,505.0,0.0,615.0
1631,1.7342987060546875,15.0,1.0,1.0,0.0,0.0,506.0,0.0,615.0
1632,1.7342987060546875,0.0,1.0,1.0,0.0,0.0,505.0,0.0,620.0
1633,1.7342987060546875,1.0,1.0,1.0,0.0,0.0,507.0,0.0,617.0
1634,1.7342987060546875,2.0,1.0,1.0,0.0,0.0,506.0,0.0,616.0
1635,1.7342987060546875,3.0,1.0,1.0,0.0,0.0,505.0,0.0,615.0
1636,1.7342987060546875,4.0,1.0,1.0,0.0,0.0,504.0,0.0,616.0
1637,1.7342987060546875,5.0,1.0,1.0,0.0,0.0,505.0,0.0,615.0
1638,1.7342987060546875,6.0,1.0,1.0,0.0,0.0,504.0,0.0,616.0
1639,1.7342987060546875,7.0,1.0,1.0,0.0,0.0,504.0,0.0,616.0
1640,1.7342987060546875,8.0,1.0,1.0,0.0,0.0,505.0,0.0,619.0
1641,1.7342987060546875,9.0,1.0,1.0,0.0,0.0,504.0,0.0,616.0
1642,1.7342987060546875,10.0,1.0,1.0,0.0,0.0,505.0,0.0,616.0
1643,1.7342987060546875,11.0,1.0,1.0,0.0,0.0,506.0,0.0,616.0
1644,1.7342987060546875,12.0,1.0,1.0,0.0,0.0,505.0,0.0,616.0
1645,1.7342987060546875,13.0,1.0,1.0,0.0,0.0,503.0,0.0,615.0
1646,1.7342987060546875,14.0,1.0,1.0,0.0,0.0,504.0,0.0,615.0
1647,1.7342987060546875,15.0,1.0,1.0,0.0,0.0,502.0,0.0,615.0
1648,1.7342987060546875,0.0,1.0,1.0,0.0,0.0,502.0,0.0,620.0
1649,1.7342987060546875,1.0,1.0,1.0,0.0,0.0,502.0,0.0,615.0
1650,1.7342987060546875,2.0,1.0,1.0,0.0,0.0,505.0,0.0,615.0
1651,1.7342987060546875,3.0,1.0,1.0,0.0,0.0,505.0,0.0,616.0
1652,1.7342987060546875,4.0,1.0,1.0,0.0,0.0,505.0,0.0,615.0
1653,1.7342987060546875,5.0,1.0,1.0,0.0,0.0,508.0,0.0,617.0
1654,1.7342987060546875,6.0,1.0,1.0,0.0,0.0,509.0,0.0,615.0
1655,1.7342987060546875,7.0,1.0,1.0,0.0,0.0,510.0,0.0,615.0
1656,1.7342987060546875,8.0,1.0,1.0,0.0,0.0,510.0,0.0,620.0
1657,1.7342987060546875,9.0,1.0,1.0,0.0,0.0,508.0,0.0,615.0
1658,1.7342987060546875,10.0,1.0,1.0,0.0,0.0,507.0,0.0,616.0
1659,1.7342987060546875,11.0,1.0,1.0,0.0,0.0,507.0,0.0,615.0
1660,1.7342987060546875,12.0,1.0,1.0,0.0,0.0,506.0,0.0,616.0
1661,1.7342987060546875,13.0,1.0,1.0,0.0,0.0,506.0,0.0,616.0
1662,1.7342987060546875,14.0,1.0,1.0,0.0,0.0,506.0,0.0,615.0
1663,1.7342987060546875,15.0,1.0,1.0,0.0,0.0,508.0,0.0,616.0
1664,1.7342987060546875,0.0,1.0,1.0,0.0,0.0,508.0,0.0,620.0
1665,1.7342987060546875,1.0,1.0,1.0,0.0,0.0,509.0,0.0,615.0
1666,1.7342987060546875,2.0,1.0,1.0,0.0,0.0,508.0,0.0,616.0
1667,1.7342987060546875,3.0,1.0,1.0,0.0,0.0,510.0,0.0,615.0
1668,1.7342987060546875,4.0,1.0,1.0,0.0,0.0,508.0,0.0,616.0
1669,1.7342987060546875,5.0,1.0,1.0,0.0,0.0,507.0,0.0,616.0
1670,1.7342987060546875,6.0,1.0,1.0,0.0,0.0,505.0,0.0,615.0
1671,1.7342987060546875,7.0,1.0,1.0,0.0,0.0,506.0,0.0,615.0
1672,1.7342987060546875,8.0,1.0,1.0,0.0,0.0,506.0,0.0,620.0
1673,1.7342987060546875,9.0,1.0,1.0,0.0,0.0,507.0,0.0,616.0
1674,1.7342987060546875,10.0,1.0,1.0,0.0,0.0,510.0,0.0,615.0
1675,1.7342987060546875,11.0,1.0,1.0,0.0,0.0,510.0,0.0,615.0
1676,1.7342987060546875,12.0,1.0,1.0,0.0,0.0,509.0,0.0,617.0
1677,1.7342987060546875,13.0,1.0,1.0,0.0,0.0,507.0,0.0,615.0
1678,1.7342987060546875,14.0,1.0,1.0,0.0,0.0,507.0,0.0,616.0
1679,1.7342987060546875,15.0,1.0,1.0,0.0,0.0,509.0,0.0,615.0
1680,1.7342987060546875,0.0,1.0,1.0,0.0,0.0,510.0,0.0,619.0
1681,1.7342987060546875,1.0,1.0,1.0,0.0,0.0,509.0,0.0,615.0
1682,1.7342987060546875,2.0,1.0,1.0,0.0,0.0,509.0,0.0,615.0
1683,1.7342987060546875,3.0,1.0,1.0,0.0,0.0,506.0,0.0,615.0
1684,1.7342987060546875,4.0,1.0,1.0,0.0,0.0,506.0,0.0,615.0
1685,1.7342987060546875,5.0,1.0,1.0,0.0,0.0,505.0,0.0,615.0
1686,1.7342987060546875,6.0,1.0,1.0,0.0,0.0,505.0,0.0,616.0
1687,1.7342987060546875,7.0,1.0,1.0,0.0,0.0,507.0,0.0,615.0
1688,1.7342987060546875,8.0,1.0,1.0,0.0,0.0,505.0,0.0,620.0
1689,1.7342987060546875,9.0,1.0,1.0,0.0,0.0,507.0,0.0,616.0
1690,1.7342987060546875,10.0,1.0,1.0,0.0,0.0,507.0,0.0,615.0
1691,1.7342987060546875,11.0,1.0,1.0,0.0,0.0,506.0,0.0,616.0
1692,1.7342987060546875,12.0,1.0,1.0,0.0,0.0,506.0,0.0,616.0
1693,1.7342987060546875,13.0,1.0,1.0,0.0,0.0,506.0,0.0,616.0
1694,1.7342987060546875,14.0,1.0,1.0,0.0,0.0,504.0,0.0,616.0
1695,1.7342987060546875,15.0,1.0,1.0,0.0,0.0,505.0,0.0,615.0
1696,1.7342987060546875,0.0,1.0,1.0,0.0,0.0,508.0,0.0,621.0
1697,1.7342987060546875,1.0,1.0,1.0,0.0,0.0,507.0,0.0,616.0
1698,1.7342987060546875,2.0,1.0,1.0,0.0,0.0,506.0,0.0,616.0
1699,1.7342987060546875,3.0,1.0,1.0,0.0,0.0,507.0,0.0,615.0
1700,1.809260606765747,4.0,1.0,1.0,0.0,0.0,506.0,0.0,615.0
1701,1.809260606765747,5.0,1.0,1.0,0.0,0.0,507.0,0.0,616.0
1702,1.809260606765747,6.0,1.0,1.0,0.0,0.0,506.0,0.0,616.0
1703,1.809260606765747,7.0,1.0,1.0,0.0,0.0,505.0,0.0,616.0
1704,1.809260606765747,8.0,1.0,1.0,0.0,0.0,505.0,0.0,621.0
1705,1.809260606765747,9.0,1.0,1.0,0.0,0.0,505.0,0.0,616.0
1706,1.809260606765747,10.0,1.0,1.0,0.0,0.0,507.0,0.0,616.0
1707,1.809260606765747,11.0,1.0,1.0,0.0,0.0,509.0,0.0,616.0
1708,1.809260606765747,12.0,1.0,1.0,0.0,0.0,507.0,0.0,616.0
1709,1.809260606765747,13.0,1.0,1.0,0.0,0.0,509.0,0.0,616.0
1710,1.809260606765747,14.0,1.0,1.0,0.0,0.0,508.0,0.0,616.0
1711,1.809260606765747,15.0,1.0,1.0,0.0,0.0,507.0,0.0,615.0
1712,1.809260606765747,0.0,1.0,1.0,0.0,0.0,507.0,0.0,620.0
1713,1.809260606765747,1.0,1.0,1.0,0.0,0.0,507.0,0.0,616.0
1714,1.809260606765747,2.0,1.0,1.0,0.0,0.0,507.0,0.0,616.0
1715,1.809260606765747,3.0,1.0,1.0,0.0,0.0,509.0,0.0,615.0
1716,1.809260606765747,4.0,1.0,1.0,0.0,0.0,509.0,0.0,615.0
1717,1.809260606765747,5.0,1.0,1.0,0.0,0.0,511.0,0.0,615.0
1718,1.809260606765747,6.0,1.0,1.0,0.0,0.0,508.0,0.0,615.0
1719,1.809260606765747,7.0,1.0,1.0,0.0,0.0,510.0,0.0,615.0
1720,1.809260606765747,8.0,1.0,1.0,0.0,0.0,510.0,0.0,619.0
1721,1.809260606765747,9.0,1.0,1.0,0.0,0.0,511.0,0.0,616.0
1722,1.809260606765747,10.0,1.0,1.0,0.0,0.0,511.0,0.0,615.0
1723,1.809260606765747,11.0,1.0,1.0,0.0,0.0,511.0,0.0,616.0
1724,1.809260606765747,12.0,1.0,1.0,0.0,0.0,508.0,0.0,616.0
1725,1.809260606765747,13.0,1.0,1.0,0.0,0.0,505.0,0.0,615.0
1726,1.809260606765747,14.0,1.0,1.0,0.0,0.0,507.0,0.0,616.0
1727,1.809260606765747,15.0,1.0,1.0,0.0,0.0,507.0,0.0,615.0
1728,1.809260606765747,0.0,1.0,1.0,0.0,0.0,505.0,0.0,620.0
1729,1.809260606765747,1.0,1.0,1.0,0.0,0.0,504.0,0.0,616.0
1730,1.809260606765747,2.0,1.0,1.0,0.0,0.0,504.0,0.0,615.0
1731,1.809260606765747,3.0,1.0,1.0,0.0,0.0,505.0,0.0,613.0
1732,1.809260606765747,4.0,1.0,1.0,0.0,0.0,504.0,0.0,615.0
1733,1.809260606765747,5.0,1.0,1.0,0.0,0.0,507.0,0.0,616.0
1734,1.809260606765747,6.0,1.0,1.0,0.0,0.0,507.0,0.0,615.0
1735,1.809260606765747,7.0,1.0,1.0,0.0,0.0,505.0,0.0,614.0
1736,1.809260606765747,8.0,1.0,1.0,0.0,0.0,506.0,0.0,620.0
1737,1.809260606765747,9.0,1.0,1.0,0.0,0.0,505.0,0.0,615.0
1738,1.809260606765747,10.0,1.0,1.0,0.0,0.0,504.0,0.0,616.0
1739,1.809260606765747,11.0,1.0,1.0,0.0,0.0,505.0,0.0,616.0
1740,1.809260606765747,12.0,1.0,1.0,0.0,0.0,505.0,0.0,615.0
1741,1.809260606765747,13.0,1.0,1.0,0.0,0.0,506.0,0.0,615.0
1742,1.809260606765747,14.0,1.0,1.0,0.0,0.0,507.0,0.0,615.0
1743,1.809260606765747,15.0,1.0,1.0,0.0,0.0,508.0,0.0,616.0
1744,1.809260606765747,0.0,1.0,1.0,0.0,0.0,508.0,0.0,619.0
1745,1.809260606765747,1.0,1.0,1.0,0.0,0.0,508.0,0.0,615.0
1746,1.809260606765747,2.0,1.0,1.0,0.0,0.0,508.0,0.0,616.0
1747,1.809260606765747,3.0,1.0,1.0,0.0,0.0,507.0,0.0,611.0
1748,1.809260606765747,4.0,1.0,1.0,0.0,0.0,507.0,0.0,617.0
1749,1.809260606765747,5.0,1.0,1.0,0.0,0.0,508.0,0.0,615.0
1750,1.809260606765747,6.0,1.0,1.0,0.0,0.0,507.0,0.0,615.0
1751,1.809260606765747,7.0,1.0,1.0,0.0,0.0,507.0,0.0,615.0
1752,1.809260606765747,8.0,1.0,1.0,0.0,0.0,507.0,0.0,620.0
1753,1.809260606765747,9.0,1.0,1.0,0.0,0.0,509.0,0.0,616.0
1754,1.809260606765747,10.0,1.0,1.0,0.0,0.0,510.0,0.0,616.0
1755,1.809260606765747,11.0,1.0,1.0,0.0,0.0,510.0,0.0,616.0
1756,1.809260606765747,12.0,1.0,1.0,0.0,0.0,508.0,0.0,616.0
1757,1.809260606765747,13.0,1.0,1.0,0.0,0.0,505.0,0.0,615.0
1758,1.809260606765747,14.0,1.0,1.0,0.0,0.0,505.0,0.0,616.0
1759,1.809260606765747,15.0,1.0,1.0,0.0,0.0,507.0,0.0,615.0
1760,1.809260606765747,0.0,1.0,1.0,0.0,0.0,509.0,0.0,619.0
1761,1.809260606765747,1.0,1.0,1.0,0.0,0.0,510.0,0.0,615.0
1762,1.809260606765747,2.0,1.0,1.0,0.0,0.0,510.0,0.0,615.0
1763,1.809260606765747,3.0,1.0,1.0,0.0,0.0,512.0,0.0,616.0
1764,1.809260606765747,4.0,1.0,1.0,0.0,0.0,512.0,0.0,616.0
1765,1.809260606765747,5.0,1.0,1.0,0.0,0.0,512.0,0.0,616.0
1766,1.809260606765747,6.0,1.0,1.0,0.0,0.0,510.0,0.0,616.0
1767,1.809260606765747,7.0,1.0,1.0,0.0,0.0,509.0,0.0,615.0
1768,1.809260606765747,8.0,1.0,1.0,0.0,0.0,510.0,0.0,620.0
1769,1.809260606765747,9.0,1.0,1.0,0.0,0.0,508.0,0.0,615.0
1770,1.809260606765747,10.0,1.0,1.0,0.0,0.0,506.0,0.0,616.0
1771,1.809260606765747,11.0,1.0,1.0,0.0,0.0,507.0,0.0,617.0
1772,1.809260606765747,12.0,1.0,1.0,0.0,0.0,504.0,0.0,615.0
1773,1.809260606765747,13.0,1.0,1.0,0.0,0.0,507.0,0.0,617.0
1774,1.809260606765747,14.0,1.0,1.0,0.0,0.0,507.0,0.0,616.0
1775,1.809260606765747,15.0,1.0,1.0,0.0,0.0,508.0,0.0,615.0
1776,1.809260606765747,0.0,1.0,1.0,0.0,0.0,506.0,0.0,620.0
1777,1.809260606765747,1.0,1.0,1.0,0.0,0.0,507.0,0.0,616.0
1778,1.809260606765747,2.0,1.0,1.0,0.0,0.0,507.0,0.0,616.0
1779,1.809260606765747,3.0,1.0,1.0,0.0,0.0,505.0,0.0,615.0
1780,1.809260606765747,4.0,1.0,1.0,0.0,0.0,506.0,0.0,615.0
1781,1.809260606765747,5.0,1.0,1.0,0.0,0.0,505.0,0.0,616.0
1782,1.809260606765747,6.0,1.0,1.0,0.0,0.0,504.0,0.0,615.0
1783,1.809260606765747,7.0,1.0,1.0,0.0,0.0,508.0,0.0,616.0
1784,1.809260606765747,8.0,1.0,1.0,0.0,0.0,507.0,0.0,621.0
1785,1.809260606765747,9.0,1.0,1.0,0.0,0.0,507.0,0.0,615.0
1786,1.809260606765747,10.0,1.0,1.0,0.0,0.0,505.0,0.0,616.0
1787,1.809260606765747,11.0,1.0,1.0,0.0,0.0,505.0,0.0,614.0
1788,1.809260606765747,12.0,1.0,1.0,0.0,0.0,504.0,0.0,617.0
1789,1.809260606765747,13.0,1.0,1.0,0.0,0.0,503.0,0.0,616.0
1790,1.809260606765747,14.0,1.0,1.0,0.0,0.0,504.0,0.0,615.0
1791,1.809260606765747,15.0,1.0,1.0,0.0,0.0,506.0,0.0,617.0
1792,1.809260606765747,0.0,1.0,1.0,0.0,0.0,507.0,0.0,620.0
1793,1.809260606765747,1.0,1.0,1.0,0.0,0.0,508.0,0.0,616.0
1794,1.809260606765747,2.0,1.0,1.0,0.0,0.0,508.0,0.0,616.0
1795,1.809260606765747,3.0,1.0,1.0,0.0,0.0,508.0,0.0,615.0
1796,1.809260606765747,4.0,1.0,1.0,0.0,0.0,508.0,0.0,615.0
1797,1.809260606765747,5.0,1.0,1.0,0.0,0.0,504.0,0.0,615.0
1798,1.809260606765747,6.0,1.0,1.0,0.0,0.0,503.0,0.0,617.0
1799,1.809260606765747,7.0,1.0,1.0,0.0,0.0,503.0,0.0,616.0
1800,1.9092717170715332,8.0,1.0,1.0,0.0,0.0,503.0,0.0,619.0
1801,1.9092717170715332,9.0,1.0,1.0,0.0,0.0,505.0,0.0,615.0
1802,1.9092717170715332,10.0,1.0,1.0,0.0,0.0,505.0,0.0,615.0
1803,1.9092717170715332,11.0,1.0,1.0,0.0,0.0,507.0,0.0,616.0
1804,1.9092717170715332,12.0,1.0,1.0,0.0,0.0,508.0,0.0,615.0
1805,1.9092717170715332,13.0,1.0,1.0,0.0,0.0,507.0,0.0,616.0
1806,1.9092717170715332,14.0,1.0,1.0,0.0,0.0,506.0,0.0,616.0
1807,1.9092717170715332,15.0,1.0,1.0,0.0,0.0,507.0,0.0,615.0
1808,1.9092717170715332,0.0,1.0,1.0,0.0,0.0,507.0,0.0,621.0
1809,1.9092717170715332,1.0,1.0,1.0,0.0,0.0,506.0,0.0,616.0
1810,1.9092717170715332,2.0,1.0,1.0,0.0,0.0,507.0,0.0,616.0
1811,1.9092717170715332,3.0,1.0,1.0,0.0,0.0,507.0,0.0,616.0
1812,1.9092717170715332,4.0,1.0,1.0,0.0,0.0,505.0,0.0,615.0
1813,1.9092717170715332,5.0,1.0,1.0,0.0,0.0,507.0,0.0,617.0
1814,1.9092717170715332,6.0,1.0,1.0,0.0,0.0,507.0,0.0,615.0
1815,1.9092717170715332,7.0,1.0,1.0,0.0,0.0,507.0,0.0,615.0
1816,1.9092717170715332,8.0,1.0,1.0,0.0,0.0,507.0,0.0,620.0
1817,1.9092717170715332,9.0,1.0,1.0,0.0,0.0,505.0,0.0,615.0
1818,1.9092717170715332,10.0,1.0,1.0,0.0,0.0,508.0,0.0,616.0
1819,1.9092717170715332,11.0,1.0,1.0,0.0,0.0,506.0,0.0,615.0
1820,1.9092717170715332,12.0,1.0,1.0,0.0,0.0,505.0,0.0,615.0
1821,1.9092717170715332,13.0,1.0,1.0,0.0,0.0,505.0,0.0,616.0
1822,1.9092717170715332,14.0,1.0,1.0,0.0,0.0,505.0,0.0,616.0
1823,1.9092717170715332,15.0,1.0,1.0,0.0,0.0,505.0,0.0,617.0
1824,1.9092717170715332,0.0,1.0,1.0,0.0,0.0,505.0,0.0,620.0
1825,1.9092717170715332,1.0,1.0,1.0,0.0,0.0,506.0,0.0,615.0
1826,1.9092717170715332,2.0,1.0,1.0,0.0,0.0,506.0,0.0,616.0
1827,1.9092717170715332,3.0,1.0,1.0,0.0,0.0,507.0,0.0,614.0
1828,1.9092717170715332,4.0,1.0,1.0,0.0,0.0,505.0,0.0,617.0
1829,1.9092717170715332,5.0,1.0,1.0,0.0,0.0,507.0,0.0,616.0
1830,1.9092717170715332,6.0,1.0,1.0,0.0,0.0,507.0,0.0,615.0
1831,1.9092717170715332,7.0,1.0,1.0,0.0,0.0,506.0,0.0,617.0
1832,1.9092717170715332,8.0,1.0,1.0,0.0,0.0,507.0,0.0,619.0
1833,1.9092717170715332,9.0,1.0,1.0,0.0,0.0,506.0,0.0,616.0
1834,1.9092717170715332,10.0,1.0,1.0,0.0,0.0,506.0,0.0,615.0
1835,1.9092717170715332,11.0,1.0,1.0,0.0,0.0,508.0,0.0,615.0
1836,1.9092717170715332,12.0,1.0,1.0,0.0,0.0,508.0,0.0,616.0
1837,1.9092717170715332,13.0,1.0,1.0,0.0,0.0,508.0,0.0,617.0
1838,1.9092717170715332,14.0,1.0,1.0,0.0,0.0,509.0,0.0,617.0
1839,1.9092717170715332,15.0,1.0,1.0,0.0,0.0,509.0,0.0,615.0
1840,1.9092717170715332,0.0,1.0,1.0,0.0,0.0,508.0,0.0,619.0
1841,1.9092717170715332,1.0,1.0,1.0,0.0,0.0,508.0,0.0,615.0
1842,1.9092717170715332,2.0,1.0,1.0,0.0,0.0,505.0,0.0,615.0
1843,1.9092717170715332,3.0,1.0,1.0,0.0,0.0,506.0,0.0,616.0
1844,1.9092717170715332,4.0,1.0,1.0,0.0,0.0,506.0,0.0,615.0
1845,1.9092717170715332,5.0,1.0,1.0,0.0,0.0,507.0,0.0,616.0
1846,1.9092717170715332,6.0,1.0,1.0,0.0,0.0,506.0,0.0,616.0
1847,1.9092717170715332,7.0,1.0,1.0,0.0,0.0,508.0,0.0,615.0
1848,1.9092717170715332,8.0,1.0,1.0,0.0,0.0,508.0,0.0,620.0
1849,1.9092717170715332,9.0,1.0,1.0,0.0,0.0,509.0,0.0,615.0
1850,1.9092717170715332,10.0,1.0,1.0,0.0,0.0,508.0,0.0,615.0
1851,1.9092717170715332,11.0,1.0,1.0,0.0,0.0,508.0,0.0,617.0
1852,1.9092717170715332,12.0,1.0,1.0,0.0,0.0,509.0,0.0,616.0
1853,1.9092717170715332,13.0,1.0,1.0,0.0,0.0,509.0,0.0,617.0
1854,1.9092717170715332,14.0,1.0,1.0,0.0,0.0,511.0,0.0,616.0
1855,1.9092717170715332,15.0,1.0,1.0,0.0,0.0,512.0,0.0,615.0
1856,1.9092717170715332,0.0,1.0,1.0,0.0,0.0,512.0,0.0,620.0
1857,1.9092717170715332,1.0,1.0,1.0,0.0,0.0,512.0,0.0,615.0
1858,1.9092717170715332,2.0,1.0,1.0,0.0,0.0,511.0,0.0,616.0
1859,1.9092717170715332,3.0,1.0,1.0,0.0,0.0,508.0,0.0,616.0
1860,1.9092717170715332,4.0,1.0,1.0,0.0,0.0,509.0,0.0,615.0
1861,1.9092717170715332,5.0,1.0,1.0,0.0,0.0,509.0,0.0,616.0
1862,1.9092717170715332,6.0,1.0,1.0,0.0,0.0,509.0,0.0,615.0
1863,1.9092717170715332,7.0,1.0,1.0,0.0,0.0,509.0,0.0,615.0
1864,1.9092717170715332,8.0,1.0,1.0,0.0,0.0,507.0,0.0,620.0
1865,1.9092717170715332,9.0,1.0,1.0,0.0,0.0,506.0,0.0,615.0
1866,1.9092717170715332,10.0,1.0,1.0,0.0,0.0,506.0,0.0,616.0
1867,1.9092717170715332,11.0,1.0,1.0,0.0,0.0,506.0,0.0,615.0
1868,1.9092717170715332,12.0,1.0,1.0,0.0,0.0,507.0,0.0,616.0
1869,1.9092717170715332,13.0,1.0,1.0,0.0,0.0,507.0,0.0,616.0
1870,1.9092717170715332,14.0,1.0,1.0,0.0,0.0,506.0,0.0,615.0
1871,1.9092717170715332,15.0,1.0,1.0,0.0,0.0,509.0,0.0,615.0
1872,1.9092717170715332,0.0,1.0,1.0,0.0,0.0,507.0,0.0,619.0
1873,1.9092717170715332,1.0,1.0,1.0,0.0,0.0,507.0,0.0,617.0
1874,1.9092717170715332,2.0,1.0,1.0,0.0,0.0,506.0,0.0,617.0
1875,1.9092717170715332,3.0,1.0,1.0,0.0,0.0,507.0,0.0,613.0
1876,1.9092717170715332,4.0,1.0,1.0,0.0,0.0,508.0,0.0,615.0
1877,1.9092717170715332,5.0,1.0,1.0,0.0,0.0,507.0,0.0,615.0
1878,1.9092717170715332,6.0,1.0,1.0,0.0,0.0,508.0,0.0,615.0
1879,1.9092717170715332,7.0,1.0,1.0,0.0,0.0,507.0,0.0,615.0
1880,1.9092717170715332,8.0,1.0,1.0,0.0,0.0,507.0,0.0,619.0
1881,1.9092717170715332,9.0,1.0,1.0,0.0,0.0,505.0,0.0,616.0
1882,1.9092717170715332,10.0,1.0,1.0,0.0,0.0,506.0,0.0,615.0
1883,1.9092717170715332,11.0,1.0,1.0,0.0,0.0,507.0,0.0,616.0
1884,1.9092717170715332,12.0,1.0,1.0,0.0,0.0,506.0,0.0,616.0
1885,1.9092717170715332,13.0,1.0,1.0,0.0,0.0,504.0,0.0,616.0
1886,1.9092717170715332,14.0,1.0,1.0,0.0,0.0,504.0,0.0,615.0
1887,1.9092717170715332,15.0,1.0,1.0,0.0,0.0,505.0,0.0,614.0
1888,1.9092717170715332,0.0,1.0,1.0,0.0,0.0,507.0,0.0,620.0
1889,1.9092717170715332,1.0,1.0,1.0,0.0,0.0,508.0,0.0,616.0
1890,1.9092717170715332,2.0,1.0,1.0,0.0,0.0,507.0,0.0,616.0
1891,1.9092717170715332,3.0,1.0,1.0,0.0,0.0,508.0,0.0,616.0
1892,1.9092717170715332,4.0,1.0,1.0,0.0,0.0,509.0,0.0,616.0
1893,1.9092717170715332,5.0,1.0,1.0,0.0,0.0,510.0,0.0,616.0
1894,1.9092717170715332,6.0,1.0,1.0,0.0,0.0,508.0,0.0,615.0
1895,1.9092717170715332,7.0,1.0,1.0,0.0,0.0,507.0,0.0,615.0
1896,1.9092717170715332,8.0,1.0,1.0,0.0,0.0,505.0,0.0,620.0
1897,1.9092717170715332,9.0,1.0,1.0,0.0,0.0,505.0,0.0,615.0
1898,1.9092717170715332,10.0,1.0,1.0,0.0,0.0,507.0,0.0,616.0
1899,1.9092717170715332,11.0,1.0,1.0,0.0,0.0,507.0,0.0,616.0
1900,2.030247926712036,12.0,1.0,1.0,0.0,0.0,505.0,0.0,615.0
1901,2.030247926712036,13.0,1.0,1.0,0.0,0.0,506.0,0.0,616.0
1902,2.030247926712036,14.0,1.0,1.0,0.0,0.0,506.0,0.0,615.0
1903,2.030247926712036,15.0,1.0,1.0,0.0,0.0,507.0,0.0,616.0
1904,2.030247926712036,0.0,1.0,1.0,0.0,0.0,507.0,0.0,620.0
1905,2.030247926712036,1.0,1.0,1.0,0.0,0.0,507.0,0.0,616.0
1906,2.030247926712036,2.0,1.0,1.0,0.0,0.0,508.0,0.0,617.0
1907,2.030247926712036,3.0,1.0,1.0,0.0,0.0,507.0,0.0,614.0
1908,2.030247926712036,4.0,1.0,1.0,0.0,0.0,508.0,0.0,616.0
1909,2.030247926712036,5.0,1.0,1.0,0.0,0.0,507.0,0.0,615.0
1910,2.030247926712036,6.0,1.0,1.0,0.0,0.0,506.0,0.0,615.0
1911,2.030247926712036,7.0,1.0,1.0,0.0,0.0,507.0,0.0,615.0
1912,2.030247926712036,8.0,1.0,1.0,0.0,0.0,506.0,0.0,620.0
1913,2.030247926712036,9.0,1.0,1.0,0.0,0.0,508.0,0.0,616.0
1914,2.030247926712036,10.0,1.0,1.0,0.0,0.0,507.0,0.0,615.0
1915,2.030247926712036,11.0,1.0,1.0,0.0,0.0,507.0,0.0,615.0
1916,2.030247926712036,12.0,1.0,1.0,0.0,0.0,508.0,0.0,616.0
1917,2.030247926712036,13.0,1.0,1.0,0.0,0.0,505.0,0.0,616.0
1918,2.030247926712036,14.0,1.0,1.0,0.0,0.0,504.0,0.0,617.0
1919,2.030247926712036,15.0,1.0,1.0,0.0,0.0,504.0,0.0,615.0
1920,2.030247926712036,0.0,1.0,1.0,0.0,0.0,503.0,0.0,620.0
1921,2.030247926712036,1.0,1.0,1.0,0.0,0.0,504.0,0.0,616.0
1922,2.030247926712036,2.0,1.0,1.0,0.0,0.0,506.0,0.0,615.0
1923,2.030247926712036,3.0,1.0,1.0,0.0,0.0,508.0,0.0,615.0
1924,2.030247926712036,4.0,1.0,1.0,0.0,0.0,508.0,0.0,616.0
1925,2.030247926712036,5.0,1.0,1.0,0.0,0.0,509.0,0.0,615.0
1926,2.030247926712036,6.0,1.0,1.0,0.0,0.0,509.0,0.0,616.0
1927,2.030247926712036,7.0,1.0,1.0,0.0,0.0,507.0,0.0,615.0
1928,2.030247926712036,8.0,1.0,1.0,0.0,0.0,506.0,0.0,621.0
1929,2.030247926712036,9.0,1.0,1.0,0.0,0.0,507.0,0.0,615.0
1930,2.030247926712036,10.0,1.0,1.0,0.0,0.0,507.0,0.0,615.0
1931,2.030247926712036,11.0,1.0,1.0,0.0,0.0,507.0,0.0,615.0
1932,2.030247926712036,12.0,1.0,1.0,0.0,0.0,505.0,0.0,615.0
1933,2.030247926712036,13.0,1.0,1.0,0.0,0.0,506.0,0.0,616.0
1934,2.030247926712036,14.0,1.0,1.0,0.0,0.0,505.0,0.0,616.0
1935,2.030247926712036,15.0,1.0,1.0,0.0,0.0,505.0,0.0,615.0
1936,2.030247926712036,0.0,1.0,1.0,0.0,0.0,507.0,0.0,621.0
1937,2.030247926712036,1.0,1.0,1.0,0.0,0.0,507.0,0.0,616.0
1938,2.030247926712036,2.0,1.0,1.0,0.0,0.0,506.0,0.0,616.0
1939,2.030247926712036,3.0,1.0,1.0,0.0,0.0,508.0,0.0,613.0
1940,2.030247926712036,4.0,1.0,1.0,0.0,0.0,509.0,0.0,615.0
1941,2.030247926712036,5.0,1.0,1.0,0.0,0.0,506.0,0.0,616.0
1942,2.030247926712036,6.0,1.0,1.0,0.0,0.0,505.0,0.0,615.0
1943,2.030247926712036,7.0,1.0,1.0,0.0,0.0,505.0,0.0,616.0
1944,2.030247926712036,8.0,1.0,1.0,0.0,0.0,505.0,0.0,619.0
1945,2.030247926712036,9.0,1.0,1.0,0.0,0.0,504.0,0.0,615.0
1946,2.030247926712036,10.0,1.0,1.0,0.0,0.0,505.0,0.0,615.0
1947,2.030247926712036,11.0,1.0,1.0,0.0,0.0,508.0,0.0,615.0
1948,2.030247926712036,12.0,1.0,1.0,0.0,0.0,508.0,0.0,616.0
1949,2.030247926712036,13.0,1.0,1.0,0.0,0.0,506.0,0.0,616.0
1950,2.030247926712036,14.0,1.0,1.0,0.0,0.0,506.0,0.0,616.0
1951,2.030247926712036,15.0,1.0,1.0,0.0,0.0,507.0,0.0,616.0
1952,2.030247926712036,0.0,1.0,1.0,0.0,0.0,508.0,0.0,620.0
1953,2.030247926712036,1.0,1.0,1.0,0.0,0.0,511.0,0.0,617.0
1954,2.030247926712036,2.0,1.0,1.0,0.0,0.0,509.0,0.0,615.0
1955,2.030247926712036,3.0,1.0,1.0,0.0,0.0,509.0,0.0,612.0
1956,2.030247926712036,4.0,1.0,1.0,0.0,0.0,507.0,0.0,616.0
1957,2.030247926712036,5.0,1.0,1.0,0.0,0.0,508.0,0.0,615.0
1958,2.030247926712036,6.0,1.0,1.0,0.0,0.0,508.0,0.0,617.0
1959,2.030247926712036,7.0,1.0,1.0,0.0,0.0,508.0,0.0,615.0
1960,2.030247926712036,8.0,1.0,1.0,0.0,0.0,509.0,0.0,620.0
1961,2.030247926712036,9.0,1.0,1.0,0.0,0.0,508.0,0.0,615.0
1962,2.030247926712036,10.0,1.0,1.0,0.0,0.0,507.0,0.0,615.0
1963,2.030247926712036,11.0,1.0,1.0,0.0,0.0,508.0,0.0,616.0
1964,2.030247926712036,12.0,1.0,1.0,0.0,0.0,505.0,0.0,616.0
1965,2.030247926712036,13.0,1.0,1.0,0.0,0.0,508.0,0.0,616.0
1966,2.030247926712036,14.0,1.0,1.0,0.0,0.0,507.0,0.0,616.0
1967,2.030247926712036,15.0,1.0,1.0,0.0,0.0,507.0,0.0,615.0
1968,2.030247926712036,0.0,1.0,1.0,0.0,0.0,505.0,0.0,619.0
1969,2.030247926712036,1.0,1.0,1.0,0.0,0.0,505.0,0.0,616.0
1970,2.030247926712036,2.0,1.0,1.0,0.0,0.0,507.0,0.0,616.0
1971,2.030247926712036,3.0,1.0,1.0,0.0,0.0,504.0,0.0,616.0
1972,2.030247926712036,4.0,1.0,1.0,0.0,0.0,504.0,0.0,616.0
1973,2.030247926712036,5.0,1.0,1.0,0.0,0.0,506.0,0.0,617.0
1974,2.030247926712036,6.0,1.0,1.0,0.0,0.0,508.0,0.0,616.0
1975,2.030247926712036,7.0,1.0,1.0,0.0,0.0,508.0,0.0,616.0
1976,2.030247926712036,8.0,1.0,1.0,0.0,0.0,506.0,0.0,620.0
1977,2.030247926712036,9.0,1.0,1.0,0.0,0.0,504.0,0.0,615.0
1978,2.030247926712036,10.0,1.0,1.0,0.0,0.0,506.0,0.0,615.0
1979,2.030247926712036,11.0,1.0,1.0,0.0,0.0,505.0,0.0,616.0
1980,2.030247926712036,12.0,1.0,1.0,0.0,0.0,506.0,0.0,615.0
1981,2.030247926712036,13.0,1.0,1.0,0.0,0.0,508.0,0.0,616.0
1982,2.030247926712036,14.0,1.0,1.0,0.0,0.0,510.0,0.0,616.0
1983,2.030247926712036,15.0,1.0,1.0,0.0,0.0,511.0,0.0,615.0
1984,2.030247926712036,0.0,1.0,1.0,0.0,0.0,508.0,0.0,620.0
1985,2.030247926712036,1.0,1.0,1.0,0.0,0.0,506.0,0.0,615.0
1986,2.030247926712036,2.0,1.0,1.0,0.0,0.0,506.0,0.0,615.0
1987,2.030247926712036,3.0,1.0,1.0,0.0,0.0,505.0,0.0,616.0
1988,2.030247926712036,4.0,1.0,1.0,0.0,0.0,505.0,0.0,616.0
1989,2.030247926712036,5.0,1.0,1.0,0.0,0.0,507.0,0.0,616.0
1990,2.030247926712036,6.0,1.0,1.0,0.0,0.0,507.0,0.0,615.0
1991,2.030247926712036,7.0,1.0,1.0,0.0,0.0,508.0,0.0,615.0
1992,2.030247926712036,8.0,1.0,1.0,0.0,0.0,508.0,0.0,620.0
1993,2.030247926712036,9.0,1.0,1.0,0.0,0.0,508.0,0.0,615.0
1994,2.030247926712036,10.0,1.0,1.0,0.0,0.0,506.0,0.0,616.0
1995,2.030247926712036,11.0,1.0,1.0,0.0,0.0,506.0,0.0,615.0
1996,2.030247926712036,12.0,1.0,1.0,0.0,0.0,506.0,0.0,616.0
1997,2.030247926712036,13.0,1.0,1.0,0.0,0.0,506.0,0.0,616.0
1998,2.030247926712036,14.0,1.0,1.0,0.0,0.0,508.0,0.0,616.0
1999,2.030247926712036,15.0,1.0,1.0,0.0,0.0,507.0,0.0,615.0
2000,2.120408773422241,0.0,1.0,1.0,0.0,0.0,505.0,0.0,619.0
2001,2.120408773422241,1.0,1.0,1.0,0.0,0.0,505.0,0.0,615.0
2002,2.120408773422241,2.0,1.0,1.0,0.0,0.0,506.0,0.0,616.0
2003,2.120408773422241,3.0,1.0,1.0,0.0,0.0,509.0,0.0,616.0
